        Displacement ,                Force
      0.00000000e+00 ,           0.00000000
      1.10890760e-05 ,           6.51013708
      1.55353337e-04 ,          91.02621460
      6.84540952e-04 ,         400.91284180
      1.87091809e-03 ,        1095.41174316
      3.90838413e-03 ,        2287.59863281
      6.87000342e-03 ,        4019.44726562
      1.06907850e-02 ,        6251.86718750
      1.51598817e-02 ,        8845.07812500
      2.00133920e-02 ,        9857.81445312
      2.50081234e-02 ,       10561.10058594
      3.00055165e-02 ,       11257.45605469
      3.50029096e-02 ,       11911.31835938
      4.00003009e-02 ,       12502.87890625
      4.50060628e-02 ,       13036.88085938
      5.00034541e-02 ,       13460.80078125
      5.50008453e-02 ,       13739.42382812
      6.00066073e-02 ,       13919.68554688
      6.50039986e-02 ,       14071.53808594
      7.00013936e-02 ,       14189.97753906
      7.50064775e-02 ,       14303.59570312
      8.00037012e-02 ,       14411.88867188
      8.50006342e-02 ,       14519.09472656
      9.00059193e-02 ,       14624.33398438
      9.50028449e-02 ,       14727.26367188
      1.00004300e-01 ,       14827.70214844
      1.05007343e-01 ,       14926.16699219
      1.10006072e-01 ,       15021.81933594
      1.15004823e-01 ,       15115.62597656
      1.20003603e-01 ,       15207.95703125
      1.25002414e-01 ,       15298.94628906
      1.30001247e-01 ,       15388.64746094
      1.35000110e-01 ,       15477.14257812
      1.40007317e-01 ,       15564.64160156
      1.45006225e-01 ,       15650.75488281
      1.50005177e-01 ,       15735.60351562
      1.55004129e-01 ,       15819.41308594
      1.60003394e-01 ,       15902.09472656
      1.65002704e-01 ,       15983.74023438
      1.70002043e-01 ,       16064.34472656
      1.75001428e-01 ,       16143.92285156
      1.80000827e-01 ,       16222.48535156
      1.85000271e-01 ,       16300.04589844
      1.90008059e-01 ,       16376.74023438
      1.95007563e-01 ,       16452.32617188
      2.00007096e-01 ,       16526.94140625
      2.05006659e-01 ,       16600.59570312
      2.10006267e-01 ,       16673.30078125
      2.15005890e-01 ,       16745.06835938
      2.20005557e-01 ,       16815.86718750
      2.25005254e-01 ,       16885.85351562
      2.30004981e-01 ,       16954.87109375
      2.35004753e-01 ,       17022.99804688
      2.40004539e-01 ,       17090.23632812
      2.45004371e-01 ,       17156.59960938
      2.50004232e-01 ,       17222.09765625
      2.55004108e-01 ,       17286.74023438
      2.60004044e-01 ,       17350.53320312
      2.65003979e-01 ,       17413.49023438
      2.70003974e-01 ,       17475.61914062
      2.75003999e-01 ,       17536.92773438
      2.80004054e-01 ,       17597.42968750
      2.85004139e-01 ,       17657.13085938
      2.90004253e-01 ,       17716.03906250
      2.95004398e-01 ,       17774.11914062
      3.00004542e-01 ,       17831.34179688
      3.05004746e-01 ,       17887.80273438
      3.10004950e-01 ,       17943.51367188
      3.15005213e-01 ,       17998.47460938
      3.20005447e-01 ,       18052.67382812
      3.25005740e-01 ,       18106.09960938
      3.30006003e-01 ,       18158.78320312
      3.35006297e-01 ,       18210.74414062
      3.40006590e-01 ,       18261.99609375
      3.45006883e-01 ,       18312.55859375
      3.50007176e-01 ,       18362.42968750
      3.55007470e-01 ,       18411.61132812
      3.60007793e-01 ,       18460.12304688
      3.65008086e-01 ,       18507.97070312
      3.70000094e-01 ,       18555.08398438
      3.75000387e-01 ,       18601.62890625
      3.80000710e-01 ,       18647.52929688
      3.85001034e-01 ,       18692.79687500
      3.90001327e-01 ,       18737.43750000
      3.95001650e-01 ,       18781.45703125
      4.00001973e-01 ,       18824.86328125
      4.05002296e-01 ,       18867.66015625
      4.10002619e-01 ,       18909.85742188
      4.15002972e-01 ,       18951.45898438
      4.20003295e-01 ,       18992.47265625
      4.25003618e-01 ,       19032.90429688
      4.30003971e-01 ,       19072.76171875
      4.35004324e-01 ,       19112.04687500
      4.40004647e-01 ,       19150.76953125
      4.45005000e-01 ,       19188.93359375
      4.50005352e-01 ,       19226.54687500
      4.55005705e-01 ,       19263.61328125
      4.60006058e-01 ,       19300.13867188
      4.65006411e-01 ,       19336.13085938
      4.70006764e-01 ,       19371.59179688
      4.75007117e-01 ,       19406.53125000
      4.80007499e-01 ,       19440.95117188
      4.85007852e-01 ,       19474.85742188
      4.90008235e-01 ,       19508.25781250
      4.95000273e-01 ,       19541.10156250
      5.00000656e-01 ,       19573.50390625
      5.05001009e-01 ,       19605.41406250
      5.10001421e-01 ,       19636.83789062
      5.15001774e-01 ,       19667.78125000
      5.20002186e-01 ,       19698.24804688
      5.25002539e-01 ,       19728.24414062
      5.30002952e-01 ,       19757.77343750
      5.35003364e-01 ,       19786.84375000
      5.40003717e-01 ,       19815.45703125
      5.45004129e-01 ,       19843.61914062
      5.50004542e-01 ,       19871.33789062
      5.55004954e-01 ,       19898.61328125
      5.60005367e-01 ,       19925.45312500
      5.65005779e-01 ,       19951.86132812
      5.70006132e-01 ,       19977.84375000
      5.75006604e-01 ,       20003.40429688
      5.80007017e-01 ,       20028.54687500
      5.85007429e-01 ,       20053.27734375
      5.90007842e-01 ,       20077.60156250
      5.95008254e-01 ,       20101.51953125
      6.00000381e-01 ,       20125.00195312
      6.05000794e-01 ,       20148.12890625
      6.10001206e-01 ,       20170.86718750
      6.15001678e-01 ,       20193.21875000
      6.20002091e-01 ,       20215.18750000
      6.25002503e-01 ,       20236.78125000
      6.30002975e-01 ,       20258.00000000
      6.35003388e-01 ,       20278.85156250
      6.40003860e-01 ,       20299.33789062
      6.45004332e-01 ,       20319.46289062
      6.50004745e-01 ,       20339.23046875
      6.55005217e-01 ,       20358.64453125
      6.60005689e-01 ,       20377.70898438
      6.65006161e-01 ,       20396.42773438
      6.70006573e-01 ,       20414.80468750
      6.75007045e-01 ,       20432.83789062
      6.80007517e-01 ,       20450.53710938
      6.85007989e-01 ,       20467.90234375
      6.90000117e-01 ,       20484.90820312
      6.95000589e-01 ,       20501.61523438
      7.00001121e-01 ,       20517.99414062
      7.05001593e-01 ,       20534.05078125
      7.10002065e-01 ,       20549.78125000
      7.15002537e-01 ,       20565.19140625
      7.20003009e-01 ,       20580.27734375
      7.25003541e-01 ,       20595.04296875
      7.30004013e-01 ,       20609.49609375
      7.35004485e-01 ,       20623.60937500
      7.40005016e-01 ,       20637.40820312
      7.45005488e-01 ,       20650.88476562
      7.50006020e-01 ,       20664.04101562
      7.55006492e-01 ,       20676.87695312
      7.60007024e-01 ,       20689.39648438
      7.65007496e-01 ,       20701.60351562
      7.70008028e-01 ,       20713.50390625
      7.75000215e-01 ,       20725.08398438
      7.80000746e-01 ,       20736.38867188
      7.85001278e-01 ,       20747.40625000
      7.90001810e-01 ,       20758.14648438
      7.95002341e-01 ,       20768.60156250
      8.00002873e-01 ,       20778.78906250
      8.05003405e-01 ,       20788.71093750
      8.10003936e-01 ,       20798.36914062
      8.15004468e-01 ,       20807.76953125
      8.20005000e-01 ,       20816.91406250
      8.25005531e-01 ,       20825.80468750
      8.30006123e-01 ,       20834.44531250
      8.35006654e-01 ,       20842.83789062
      8.40007186e-01 ,       20850.98437500
      8.45007777e-01 ,       20858.88867188
      8.50008309e-01 ,       20866.54687500
      8.55000556e-01 ,       20873.95312500
      8.60001147e-01 ,       20881.12890625
      8.65001678e-01 ,       20888.06054688
      8.70002270e-01 ,       20894.75000000
      8.75002861e-01 ,       20901.19921875
      8.80003393e-01 ,       20907.40820312
      8.85003984e-01 ,       20913.38281250
      8.90004575e-01 ,       20919.12500000
      8.95005167e-01 ,       20924.64062500
      9.00005758e-01 ,       20929.93554688
      9.05006349e-01 ,       20935.01171875
      9.10006940e-01 ,       20939.87109375
      9.15007532e-01 ,       20944.51953125
      9.20008123e-01 ,       20948.95703125
      9.25000429e-01 ,       20953.18164062
      9.30001020e-01 ,       20957.20507812
      9.35001612e-01 ,       20961.02734375
      9.40002203e-01 ,       20964.64453125
      9.45002854e-01 ,       20968.06054688
      9.50003445e-01 ,       20971.27539062
      9.55004036e-01 ,       20974.29296875
      9.60004687e-01 ,       20977.11132812
      9.65005279e-01 ,       20979.73437500
      9.70005929e-01 ,       20982.16210938
      9.75006521e-01 ,       20984.39453125
      9.80007172e-01 ,       20986.43359375
      9.85007763e-01 ,       20988.28320312
      9.90000069e-01 ,       20989.94140625
      9.95000720e-01 ,       20991.41601562
      1.00000131e+00 ,       20992.70312500
      1.00500202e+00 ,       20993.80468750
      1.01000261e+00 ,       20994.72460938
      1.01500332e+00 ,       20995.46484375
      1.02000391e+00 ,       20996.02343750
      1.02500451e+00 ,       20996.40820312
      1.03000522e+00 ,       20996.61523438
      1.03500581e+00 ,       20996.65039062
      1.04000652e+00 ,       20996.51171875
      1.04500711e+00 ,       20996.20312500
      1.05000782e+00 ,       20995.72460938
      1.05500019e+00 ,       20995.08007812
      1.06000078e+00 ,       20994.26953125
      1.06500149e+00 ,       20993.28906250
      1.07000208e+00 ,       20992.15039062
      1.07500279e+00 ,       20990.84570312
      1.08000338e+00 ,       20989.37890625
      1.08500409e+00 ,       20987.75195312
      1.09000480e+00 ,       20985.96484375
      1.09500539e+00 ,       20984.01953125
      1.10000610e+00 ,       20981.91601562
      1.10500669e+00 ,       20979.65625000
      1.11000741e+00 ,       20977.24023438
      1.11500812e+00 ,       20974.66796875
      1.12000036e+00 ,       20971.94531250
      1.12500107e+00 ,       20969.07031250
      1.13000178e+00 ,       20966.04101562
      1.13500237e+00 ,       20962.86132812
      1.14000309e+00 ,       20959.53125000
      1.14500380e+00 ,       20956.05468750
      1.15000439e+00 ,       20952.42968750
      1.15500510e+00 ,       20948.65820312
      1.16000581e+00 ,       20944.74218750
      1.16500640e+00 ,       20940.67968750
      1.17000711e+00 ,       20936.47460938
      1.17500782e+00 ,       20932.12500000
      1.18000007e+00 ,       20927.64257812
      1.18500078e+00 ,       20923.00781250
      1.19000149e+00 ,       20918.23632812
      1.19500208e+00 ,       20913.32031250
      1.20000279e+00 ,       20908.26757812
      1.20500350e+00 ,       20903.07226562
      1.21000409e+00 ,       20897.73828125
      1.21500480e+00 ,       20892.26757812
      1.22000551e+00 ,       20886.65820312
      1.22500610e+00 ,       20880.91015625
      1.23000681e+00 ,       20875.02343750
      1.23500752e+00 ,       20869.00000000
      1.24000812e+00 ,       20862.83789062
      1.24500048e+00 ,       20856.54492188
      1.25000119e+00 ,       20850.09960938
      1.25500190e+00 ,       20843.51171875
      1.26000249e+00 ,       20836.77343750
      1.26500320e+00 ,       20829.88671875
      1.27000391e+00 ,       20822.84765625
      1.27500451e+00 ,       20815.65234375
      1.28000522e+00 ,       20808.30273438
      1.28500593e+00 ,       20800.79882812
      1.29000652e+00 ,       20793.14257812
      1.29500723e+00 ,       20785.33789062
      1.30000794e+00 ,       20777.38867188
      1.30500031e+00 ,       20769.30859375
      1.31000102e+00 ,       20761.07812500
      1.31500161e+00 ,       20752.70898438
      1.32000232e+00 ,       20744.20507812
      1.32500303e+00 ,       20735.56835938
      1.33000374e+00 ,       20726.80078125
      1.33500433e+00 ,       20717.90429688
      1.34000504e+00 ,       20708.87890625
      1.34500575e+00 ,       20699.72656250
      1.35000646e+00 ,       20690.45117188
      1.35500717e+00 ,       20681.05078125
      1.36000776e+00 ,       20671.53125000
      1.36500013e+00 ,       20661.90429688
      1.37000084e+00 ,       20652.14257812
      1.37500155e+00 ,       20642.26367188
      1.38000226e+00 ,       20632.26562500
      1.38500297e+00 ,       20622.15039062
      1.39000368e+00 ,       20611.92187500
      1.39500439e+00 ,       20601.57617188
      1.40000510e+00 ,       20591.11914062
      1.40500581e+00 ,       20580.54882812
      1.41000652e+00 ,       20569.86523438
      1.41500723e+00 ,       20559.07226562
      1.42000794e+00 ,       20548.16796875
      1.42500031e+00 ,       20537.17382812
      1.43000102e+00 ,       20526.04882812
      1.43500173e+00 ,       20514.81250000
      1.44000244e+00 ,       20503.46484375
      1.44500315e+00 ,       20492.00195312
      1.45000398e+00 ,       20480.39843750
      1.45500469e+00 ,       20468.59960938
      1.46000540e+00 ,       20456.53125000
      1.46500611e+00 ,       20444.17578125
      1.47000682e+00 ,       20431.59375000
      1.47500753e+00 ,       20418.86718750
      1.48000824e+00 ,       20406.03906250
      1.48500073e+00 ,       20393.14648438
      1.49000144e+00 ,       20380.15820312
      1.49500215e+00 ,       20367.09179688
      1.50000298e+00 ,       20353.94335938
      1.50500369e+00 ,       20340.70312500
      1.51000440e+00 ,       20327.35546875
      1.51500511e+00 ,       20313.88867188
      1.52000594e+00 ,       20300.30273438
      1.52500665e+00 ,       20286.61132812
      1.53000736e+00 ,       20272.83398438
      1.53500819e+00 ,       20258.98046875
      1.54000056e+00 ,       20245.05859375
      1.54500127e+00 ,       20231.04882812
      1.55000210e+00 ,       20216.96875000
      1.55500281e+00 ,       20202.82812500
      1.56000352e+00 ,       20188.62890625
      1.56500435e+00 ,       20174.37304688
      1.57000506e+00 ,       20160.06250000
      1.57500589e+00 ,       20145.70117188
      1.58000660e+00 ,       20131.28515625
      1.58500731e+00 ,       20116.82031250
      1.59000814e+00 ,       20102.30273438
      1.59500051e+00 ,       20087.76171875
      1.60000134e+00 ,       20073.14453125
      1.60500205e+00 ,       20058.48046875
      1.61000288e+00 ,       20043.76171875
      1.61500359e+00 ,       20028.94726562
      1.62000442e+00 ,       20013.91992188
      1.62500513e+00 ,       19998.81054688
      1.63000596e+00 ,       19983.64453125
      1.63500667e+00 ,       19968.41992188
      1.64000750e+00 ,       19953.14843750
      1.64500821e+00 ,       19937.83398438
      1.65000069e+00 ,       19922.51171875
      1.65500152e+00 ,       19907.13476562
      1.66000223e+00 ,       19891.73242188
      1.66500306e+00 ,       19876.30664062
      1.67000377e+00 ,       19860.86132812
      1.67500460e+00 ,       19845.39648438
      1.68000543e+00 ,       19829.91015625
      1.68500614e+00 ,       19814.38867188
      1.69000697e+00 ,       19798.85742188
      1.69500780e+00 ,       19783.28320312
      1.70000029e+00 ,       19767.67968750
      1.70500100e+00 ,       19751.97460938
      1.71000183e+00 ,       19736.15234375
      1.71500266e+00 ,       19720.16796875
      1.72000349e+00 ,       19703.96289062
      1.72500420e+00 ,       19687.49804688
      1.73000503e+00 ,       19670.75976562
      1.73500586e+00 ,       19653.76562500
      1.74000669e+00 ,       19636.55468750
      1.74500751e+00 ,       19619.18750000
      1.75000834e+00 ,       19601.70507812
      1.75500083e+00 ,       19584.16992188
      1.76000166e+00 ,       19566.54687500
      1.76500249e+00 ,       19548.88085938
      1.77000332e+00 ,       19531.18164062
      1.77500415e+00 ,       19513.45703125
      1.78000498e+00 ,       19495.71289062
      1.78500581e+00 ,       19477.95312500
      1.79000664e+00 ,       19460.17187500
      1.79500747e+00 ,       19442.38476562
      1.80000830e+00 ,       19424.58398438
      1.80500078e+00 ,       19406.80859375
      1.81000173e+00 ,       19388.98632812
      1.81500256e+00 ,       19371.16210938
      1.82000339e+00 ,       19353.33593750
      1.82500422e+00 ,       19335.50976562
      1.83000505e+00 ,       19317.68945312
      1.83500600e+00 ,       19299.87304688
      1.84000683e+00 ,       19282.06250000
      1.84500766e+00 ,       19264.26367188
      1.85000026e+00 ,       19246.50390625
      1.85500109e+00 ,       19228.72656250
      1.86000192e+00 ,       19210.95703125
      1.86500287e+00 ,       19193.18750000
      1.87000370e+00 ,       19175.38867188
      1.87500465e+00 ,       19157.51367188
      1.88000548e+00 ,       19139.51562500
      1.88500643e+00 ,       19121.41015625
      1.89000726e+00 ,       19103.25000000
      1.89500821e+00 ,       19085.06835938
      1.90000069e+00 ,       19066.90429688
      1.90500164e+00 ,       19048.69921875
      1.91000247e+00 ,       19030.48632812
      1.91500831e+00 ,       19012.24218750
      1.92000115e+00 ,       18994.03320312
      1.92500591e+00 ,       18975.76953125
      1.93000591e+00 ,       18957.50976562
      1.93500113e+00 ,       18939.25585938
      1.94000828e+00 ,       18920.94140625
      1.94500232e+00 ,       18902.66992188
      1.95000827e+00 ,       18884.33789062
      1.95500124e+00 ,       18866.04101562
      1.96000600e+00 ,       18847.68750000
      1.96500599e+00 ,       18829.33984375
      1.97000134e+00 ,       18811.00000000
      1.97500026e+00 ,       18792.63476562
      1.98000264e+00 ,       18774.24414062
      1.98500037e+00 ,       18755.85937500
      1.99000168e+00 ,       18737.44921875
      1.99500632e+00 ,       18719.01562500
      2.00000644e+00 ,       18700.58984375
      2.00500178e+00 ,       18682.17382812
      2.01000071e+00 ,       18663.73242188
      2.01500297e+00 ,       18645.25585938
      2.02000070e+00 ,       18626.79101562
      2.02500200e+00 ,       18608.30664062
      2.03000665e+00 ,       18589.79882812
      2.03500652e+00 ,       18571.29882812
      2.04000187e+00 ,       18552.80664062
      2.04500079e+00 ,       18534.29101562
      2.05000305e+00 ,       18515.75390625
      2.05500054e+00 ,       18497.22460938
      2.06000161e+00 ,       18478.67382812
      2.06500626e+00 ,       18460.10156250
      2.07000613e+00 ,       18441.53906250
      2.07500148e+00 ,       18422.98437500
      2.08000016e+00 ,       18404.40820312
      2.08500218e+00 ,       18385.81250000
      2.09000778e+00 ,       18367.19726562
      2.09500074e+00 ,       18348.62109375
      2.10000491e+00 ,       18329.99414062
      2.10500479e+00 ,       18311.37890625
      2.11000800e+00 ,       18292.74414062
      2.11500645e+00 ,       18274.12109375
      2.12000036e+00 ,       18255.50390625
      2.12500572e+00 ,       18236.78125000
      2.13000655e+00 ,       18217.95507812
      2.13500237e+00 ,       18199.04296875
      2.14000177e+00 ,       18180.05468750
      2.14500427e+00 ,       18161.02343750
      2.15000200e+00 ,       18141.99609375
      2.15500307e+00 ,       18122.95312500
      2.16000724e+00 ,       18103.89648438
      2.16500664e+00 ,       18084.85546875
      2.17000151e+00 ,       18065.83007812
      2.17500758e+00 ,       18046.76171875
      2.18000102e+00 ,       18027.73828125
      2.18500543e+00 ,       18008.66992188
      2.19000530e+00 ,       17989.61718750
      2.19500065e+00 ,       17970.58203125
      2.20000696e+00 ,       17951.50000000
      2.20500064e+00 ,       17932.46484375
      2.21000552e+00 ,       17913.38476562
      2.21500587e+00 ,       17894.32226562
      2.22000146e+00 ,       17875.27539062
      2.22500038e+00 ,       17856.21289062
      2.23000240e+00 ,       17837.14062500
      2.23500752e+00 ,       17818.05273438
