        Displacement ,                Force
      0.00000000e+00 ,           0.00000000
      1.10890760e-05 ,           6.51259327
      1.55353322e-04 ,          91.05990601
      6.84540544e-04 ,         401.05636597
      1.87091471e-03 ,        1095.79016113
      3.90836922e-03 ,        2288.35961914
      6.86995825e-03 ,        4020.73071289
      1.06906788e-02 ,        6253.77685547
      1.51596777e-02 ,        8830.04687500
      2.00130753e-02 ,        9814.80957031
      2.50077024e-02 ,       10523.58984375
      3.00049931e-02 ,       11212.93554688
      3.50022838e-02 ,       11888.97460938
      4.00078930e-02 ,       12560.83789062
      4.50049192e-02 ,       13196.79003906
      5.00017442e-02 ,       13678.63281250
      5.50068282e-02 ,       13854.58203125
      6.00035004e-02 ,       13979.11621094
      6.50001392e-02 ,       14098.02246094
      7.00051114e-02 ,       14214.01953125
      7.50016868e-02 ,       14328.03320312
      8.00065994e-02 ,       14440.61621094
      8.50031078e-02 ,       14551.70507812
      9.00030807e-02 ,       14661.62792969
      9.50057581e-02 ,       14770.22753906
      1.00000598e-01 ,       14876.38476562
      1.05003215e-01 ,       14980.95996094
      1.10005803e-01 ,       15082.46972656
      1.15000546e-01 ,       15182.52148438
      1.20003812e-01 ,       15281.74707031
      1.25004008e-01 ,       15379.65722656
      1.30004153e-01 ,       15476.40722656
      1.35004282e-01 ,       15571.78613281
      1.40004382e-01 ,       15665.84472656
      1.45004451e-01 ,       15758.87109375
      1.50004521e-01 ,       15850.86425781
      1.55004576e-01 ,       15941.85156250
      1.60004601e-01 ,       16031.85253906
      1.65004626e-01 ,       16120.87792969
      1.70004636e-01 ,       16208.93847656
      1.75004631e-01 ,       16296.04589844
      1.80004612e-01 ,       16382.20507812
      1.85004577e-01 ,       16467.42773438
      1.90004528e-01 ,       16551.72070312
      1.95004478e-01 ,       16635.09375000
      2.00004414e-01 ,       16717.54492188
      2.05004334e-01 ,       16799.09179688
      2.10004240e-01 ,       16879.74218750
      2.15004146e-01 ,       16959.51171875
      2.20004022e-01 ,       17038.40429688
      2.25003898e-01 ,       17116.43359375
      2.30003759e-01 ,       17193.60546875
      2.35003620e-01 ,       17269.91015625
      2.40007162e-01 ,       17345.43554688
      2.45003626e-01 ,       17419.71679688
      2.50000089e-01 ,       17493.20117188
      2.55004406e-01 ,       17565.96289062
      2.60000855e-01 ,       17637.81250000
      2.65005141e-01 ,       17708.98828125
      2.70001560e-01 ,       17779.27343750
      2.75005817e-01 ,       17848.90234375
      2.80002207e-01 ,       17917.65820312
      2.85006464e-01 ,       17985.76953125
      2.90002853e-01 ,       18053.02734375
      2.95007080e-01 ,       18119.64453125
      3.00003439e-01 ,       18185.41406250
      3.05007666e-01 ,       18250.55664062
      3.10003996e-01 ,       18314.88085938
      3.15000325e-01 ,       18378.50000000
      3.20004523e-01 ,       18441.51757812
      3.25000823e-01 ,       18503.74609375
      3.30005020e-01 ,       18565.38476562
      3.35001320e-01 ,       18626.25195312
      3.40005517e-01 ,       18686.54492188
      3.45001787e-01 ,       18746.07812500
      3.50005955e-01 ,       18805.05078125
      3.55002254e-01 ,       18863.28125000
      3.60006392e-01 ,       18920.95898438
      3.65002662e-01 ,       18977.91406250
      3.70006830e-01 ,       19034.32812500
      3.75003070e-01 ,       19090.02929688
      3.80007207e-01 ,       19145.19335938
      3.85003448e-01 ,       19199.63476562
      3.90007585e-01 ,       19253.54296875
      3.95003825e-01 ,       19306.76562500
      4.00000036e-01 ,       19359.39843750
      4.05004144e-01 ,       19411.53125000
      4.10000354e-01 ,       19463.03320312
      4.15004462e-01 ,       19514.02343750
      4.20000672e-01 ,       19564.45117188
      4.25004750e-01 ,       19614.25000000
      4.30000961e-01 ,       19663.47656250
      4.35005039e-01 ,       19712.24023438
      4.40001220e-01 ,       19760.38085938
      4.45005298e-01 ,       19808.06445312
      4.50001448e-01 ,       19855.14062500
      4.55005527e-01 ,       19901.76757812
      4.60001677e-01 ,       19947.77929688
      4.65005726e-01 ,       19993.48242188
      4.70001876e-01 ,       20038.49609375
      4.75005925e-01 ,       20083.07421875
      4.80002075e-01 ,       20127.08398438
      4.85006094e-01 ,       20170.66796875
      4.90002215e-01 ,       20213.69531250
      4.95006233e-01 ,       20256.30468750
      5.00002384e-01 ,       20298.36718750
      5.05005658e-01 ,       20340.25585938
      5.10001779e-01 ,       20381.40234375
      5.15005767e-01 ,       20422.15039062
      5.20001888e-01 ,       20462.37304688
      5.25005877e-01 ,       20502.20117188
      5.30001998e-01 ,       20541.51367188
      5.35005987e-01 ,       20580.44140625
      5.40002048e-01 ,       20618.86328125
      5.45006037e-01 ,       20656.90820312
      5.50002098e-01 ,       20694.45898438
      5.55006087e-01 ,       20731.63867188
      5.60002148e-01 ,       20768.33593750
      5.65006077e-01 ,       20804.66992188
      5.70002198e-01 ,       20840.52929688
      5.75006127e-01 ,       20876.03320312
      5.80002189e-01 ,       20911.07421875
      5.85006118e-01 ,       20945.76367188
      5.90002179e-01 ,       20980.00000000
      5.95006108e-01 ,       21013.89257812
      6.00002110e-01 ,       21047.33984375
      6.05006039e-01 ,       21080.45312500
      6.10002100e-01 ,       21113.12695312
      6.15005970e-01 ,       21145.47265625
      6.20002031e-01 ,       21177.39062500
      6.25005901e-01 ,       21208.98437500
      6.30001903e-01 ,       21240.15820312
      6.35005832e-01 ,       21271.01562500
      6.40001833e-01 ,       21301.46093750
      6.45005703e-01 ,       21331.59570312
      6.50001705e-01 ,       21361.32617188
      6.55005574e-01 ,       21390.75195312
      6.60001576e-01 ,       21419.78320312
      6.65005445e-01 ,       21448.51171875
      6.70001388e-01 ,       21476.85546875
      6.75005257e-01 ,       21504.90234375
      6.80001259e-01 ,       21532.57031250
      6.85005069e-01 ,       21559.94921875
      6.90001070e-01 ,       21586.95312500
      6.95004880e-01 ,       21613.67187500
      7.00000882e-01 ,       21640.02148438
      7.05004692e-01 ,       21666.08984375
      7.10000634e-01 ,       21691.79687500
      7.15004444e-01 ,       21717.22265625
      7.20000386e-01 ,       21742.28710938
      7.25004256e-01 ,       21767.07226562
      7.30000138e-01 ,       21791.49609375
      7.35004008e-01 ,       21815.63281250
      7.40007758e-01 ,       21839.44335938
      7.45003700e-01 ,       21862.88085938
      7.50007510e-01 ,       21886.01757812
      7.55003452e-01 ,       21908.77148438
      7.60007203e-01 ,       21931.20703125
      7.65003145e-01 ,       21953.24414062
      7.70006895e-01 ,       21974.94531250
      7.75002837e-01 ,       21996.23828125
      7.80006588e-01 ,       22017.18945312
      7.85002470e-01 ,       22037.72851562
      7.90006280e-01 ,       22057.94921875
      7.95002162e-01 ,       22077.74218750
      8.00005913e-01 ,       22097.19726562
      8.05001795e-01 ,       22116.25781250
      8.10005546e-01 ,       22134.98046875
      8.15001369e-01 ,       22153.31640625
      8.20005119e-01 ,       22171.33007812
      8.25001001e-01 ,       22188.97656250
      8.30004692e-01 ,       22206.32226562
      8.35000575e-01 ,       22223.33007812
      8.40004265e-01 ,       22240.06445312
      8.45000088e-01 ,       22256.48828125
      8.50003779e-01 ,       22272.65820312
      8.55007529e-01 ,       22288.56054688
      8.60003293e-01 ,       22304.16992188
      8.65006983e-01 ,       22319.54101562
      8.70002806e-01 ,       22334.62304688
      8.75006497e-01 ,       22349.46289062
      8.80002260e-01 ,       22364.01171875
      8.85005891e-01 ,       22378.30859375
      8.90001714e-01 ,       22392.30859375
      8.95005345e-01 ,       22406.05273438
      9.00001109e-01 ,       22419.49609375
      9.05004740e-01 ,       22432.68554688
      9.10000503e-01 ,       22445.57812500
      9.15004075e-01 ,       22458.23046875
      9.20007706e-01 ,       22470.62304688
      9.25003469e-01 ,       22482.74609375
      9.30007041e-01 ,       22494.64062500
      9.35002744e-01 ,       22506.27343750
      9.40006375e-01 ,       22517.68554688
      9.45002079e-01 ,       22528.83789062
      9.50005651e-01 ,       22539.76367188
      9.55001354e-01 ,       22550.42773438
      9.60004926e-01 ,       22560.85742188
      9.65000570e-01 ,       22571.01562500
      9.70004141e-01 ,       22580.93164062
      9.75007713e-01 ,       22590.58593750
      9.80003357e-01 ,       22599.96289062
      9.85006928e-01 ,       22609.09570312
      9.90002573e-01 ,       22617.95898438
      9.95006084e-01 ,       22626.58789062
      1.00000179e+00 ,       22634.96093750
      1.00500524e+00 ,       22643.10937500
      1.01000094e+00 ,       22651.01171875
      1.01500440e+00 ,       22658.70117188
      1.02000010e+00 ,       22666.15039062
      1.02500355e+00 ,       22673.38867188
      1.03000700e+00 ,       22680.40039062
      1.03500271e+00 ,       22687.17578125
      1.04000616e+00 ,       22693.73437500
      1.04500175e+00 ,       22700.05273438
      1.05000532e+00 ,       22706.14843750
      1.05500090e+00 ,       22711.99804688
      1.06000435e+00 ,       22717.61718750
      1.06500781e+00 ,       22722.99414062
      1.07000351e+00 ,       22728.11132812
      1.07500696e+00 ,       22732.98437500
      1.08000255e+00 ,       22737.59765625
      1.08500600e+00 ,       22741.95507812
      1.09000158e+00 ,       22746.03710938
      1.09500504e+00 ,       22749.86328125
      1.10000062e+00 ,       22753.41992188
      1.10500407e+00 ,       22756.72460938
      1.11000752e+00 ,       22759.78125000
      1.11500311e+00 ,       22762.59765625
      1.12000656e+00 ,       22765.19335938
      1.12500215e+00 ,       22767.57617188
      1.13000548e+00 ,       22769.76367188
      1.13500106e+00 ,       22771.74804688
      1.14000452e+00 ,       22773.56640625
      1.14500010e+00 ,       22775.22265625
      1.15000355e+00 ,       22776.71875000
      1.15500689e+00 ,       22778.06054688
      1.16000247e+00 ,       22779.24414062
      1.16500592e+00 ,       22780.27148438
      1.17000151e+00 ,       22781.15039062
      1.17500484e+00 ,       22781.87890625
      1.18000042e+00 ,       22782.45507812
      1.18500388e+00 ,       22782.87890625
      1.19000721e+00 ,       22783.15039062
      1.19500279e+00 ,       22783.27148438
      1.20000625e+00 ,       22783.23828125
      1.20500171e+00 ,       22783.05468750
      1.21000516e+00 ,       22782.71679688
      1.21500063e+00 ,       22782.22460938
      1.22000408e+00 ,       22781.57812500
      1.22500753e+00 ,       22780.77539062
      1.23000300e+00 ,       22779.81640625
      1.23500645e+00 ,       22778.69726562
      1.24000192e+00 ,       22777.41992188
      1.24500537e+00 ,       22775.98632812
      1.25000083e+00 ,       22774.38281250
      1.25500429e+00 ,       22772.61132812
      1.26000762e+00 ,       22770.67382812
      1.26500309e+00 ,       22768.57031250
      1.27000654e+00 ,       22766.30078125
      1.27500200e+00 ,       22763.87304688
      1.28000546e+00 ,       22761.28125000
      1.28500092e+00 ,       22758.54101562
      1.29000425e+00 ,       22755.64648438
      1.29500771e+00 ,       22752.61132812
      1.30000317e+00 ,       22749.44531250
      1.30500650e+00 ,       22746.14257812
      1.31000197e+00 ,       22742.72070312
      1.31500542e+00 ,       22739.17187500
      1.32000089e+00 ,       22735.52929688
      1.32500422e+00 ,       22731.75585938
      1.33000755e+00 ,       22727.87304688
      1.33500302e+00 ,       22723.89062500
      1.34000635e+00 ,       22719.80078125
      1.34500182e+00 ,       22715.61718750
      1.35000515e+00 ,       22711.32812500
      1.35500062e+00 ,       22706.94921875
      1.36000407e+00 ,       22702.46679688
      1.36500740e+00 ,       22697.89062500
      1.37000287e+00 ,       22693.23632812
      1.37500620e+00 ,       22688.47070312
      1.38000154e+00 ,       22683.62304688
      1.38500488e+00 ,       22678.67382812
      1.39000034e+00 ,       22673.64062500
      1.39500368e+00 ,       22668.50781250
      1.40000701e+00 ,       22663.28515625
      1.40500247e+00 ,       22657.96484375
      1.41000581e+00 ,       22652.55664062
      1.41500115e+00 ,       22647.06835938
      1.42000449e+00 ,       22641.47851562
      1.42500782e+00 ,       22635.79492188
      1.43000329e+00 ,       22630.02929688
      1.43500650e+00 ,       22624.16015625
      1.44000196e+00 ,       22618.20703125
      1.44500530e+00 ,       22612.14648438
      1.45000064e+00 ,       22606.00195312
      1.45500398e+00 ,       22599.75195312
      1.46000731e+00 ,       22593.40234375
      1.46500266e+00 ,       22586.96484375
      1.47000599e+00 ,       22580.41796875
      1.47500134e+00 ,       22573.77929688
      1.48000467e+00 ,       22567.02929688
      1.48500001e+00 ,       22560.18750000
      1.49000335e+00 ,       22553.23242188
      1.49500668e+00 ,       22546.17382812
      1.50000203e+00 ,       22539.02148438
      1.50500536e+00 ,       22531.75390625
      1.51000071e+00 ,       22524.39062500
      1.51500392e+00 ,       22516.90820312
      1.52000725e+00 ,       22509.32031250
      1.52500260e+00 ,       22501.63476562
      1.53000593e+00 ,       22493.83398438
      1.53500128e+00 ,       22485.94140625
      1.54000461e+00 ,       22477.93554688
      1.54500782e+00 ,       22469.83593750
      1.55000317e+00 ,       22461.66015625
      1.55500650e+00 ,       22453.38281250
      1.56000185e+00 ,       22445.03710938
      1.56500518e+00 ,       22436.59765625
      1.57000053e+00 ,       22428.09570312
      1.57500374e+00 ,       22419.50390625
      1.58000708e+00 ,       22410.83789062
      1.58500242e+00 ,       22402.11523438
      1.59000564e+00 ,       22393.30859375
      1.59500110e+00 ,       22384.44531250
      1.60000432e+00 ,       22375.50000000
      1.60500753e+00 ,       22366.48828125
      1.61000299e+00 ,       22357.42578125
      1.61500621e+00 ,       22348.28320312
      1.62000155e+00 ,       22339.09179688
      1.62500489e+00 ,       22329.82421875
      1.63000023e+00 ,       22320.50781250
      1.63500357e+00 ,       22311.11718750
      1.64000678e+00 ,       22301.66601562
      1.64500213e+00 ,       22292.16992188
      1.65000546e+00 ,       22282.60156250
      1.65500081e+00 ,       22272.98828125
      1.66000402e+00 ,       22263.30468750
      1.66500735e+00 ,       22253.56445312
      1.67000270e+00 ,       22243.78515625
      1.67500591e+00 ,       22233.92968750
      1.68000138e+00 ,       22224.04492188
      1.68500459e+00 ,       22214.09570312
      1.69000793e+00 ,       22204.09570312
      1.69500327e+00 ,       22194.06250000
      1.70000648e+00 ,       22183.96679688
      1.70500183e+00 ,       22173.84375000
      1.71000516e+00 ,       22163.65820312
      1.71500051e+00 ,       22153.44531250
      1.72000384e+00 ,       22143.17578125
      1.72500706e+00 ,       22132.86523438
      1.73000240e+00 ,       22122.52929688
      1.73500562e+00 ,       22112.13867188
      1.74000108e+00 ,       22101.72851562
      1.74500430e+00 ,       22091.26367188
      1.75000751e+00 ,       22080.76171875
      1.75500298e+00 ,       22070.24218750
      1.76000619e+00 ,       22059.66992188
      1.76500154e+00 ,       22049.08203125
      1.77000487e+00 ,       22038.44335938
      1.77500021e+00 ,       22027.78906250
      1.78000343e+00 ,       22017.08789062
      1.78500664e+00 ,       22006.36718750
      1.79000199e+00 ,       21995.62304688
      1.79500532e+00 ,       21984.83007812
      1.80000067e+00 ,       21974.02148438
      1.80500388e+00 ,       21963.16992188
      1.81000710e+00 ,       21952.28710938
      1.81500256e+00 ,       21941.39648438
      1.82000577e+00 ,       21930.45898438
      1.82500112e+00 ,       21919.51171875
      1.83000433e+00 ,       21908.52148438
      1.83500755e+00 ,       21897.50585938
      1.84000289e+00 ,       21886.48046875
      1.84500623e+00 ,       21875.41406250
      1.85000157e+00 ,       21864.33789062
      1.85500479e+00 ,       21853.22070312
      1.86000013e+00 ,       21842.09765625
      1.86500335e+00 ,       21830.93359375
      1.87000656e+00 ,       21819.74414062
      1.87500191e+00 ,       21808.55078125
      1.88000512e+00 ,       21797.31445312
      1.88500059e+00 ,       21786.07617188
      1.89000380e+00 ,       21774.79492188
      1.89500701e+00 ,       21763.49218750
      1.90000236e+00 ,       21752.19335938
      1.90500557e+00 ,       21740.85742188
      1.91000092e+00 ,       21729.50781250
      1.91500413e+00 ,       21718.11914062
      1.92000735e+00 ,       21706.70507812
      1.92500269e+00 ,       21695.28515625
      1.93000591e+00 ,       21683.83593750
      1.93500125e+00 ,       21672.38476562
      1.94000447e+00 ,       21660.89648438
      1.94500768e+00 ,       21649.58984375
      1.95000303e+00 ,       21637.96679688
      1.95500624e+00 ,       21626.42773438
      1.96000159e+00 ,       21614.89062500
      1.96500480e+00 ,       21603.32031250
      1.97000015e+00 ,       21591.75195312
      1.97500336e+00 ,       21580.14843750
      1.98000658e+00 ,       21568.53125000
      1.98500192e+00 ,       21556.91601562
      1.99000514e+00 ,       21545.26757812
      1.99500048e+00 ,       21533.62109375
      2.00000358e+00 ,       21521.94531250
      2.00500679e+00 ,       21510.25390625
      2.01000214e+00 ,       21498.56640625
      2.01500535e+00 ,       21486.84765625
      2.02000070e+00 ,       21475.13867188
      2.02500391e+00 ,       21463.39453125
      2.03000712e+00 ,       21451.63671875
      2.03500247e+00 ,       21439.88671875
      2.04000568e+00 ,       21428.10351562
      2.04500103e+00 ,       21416.33007812
      2.05000424e+00 ,       21404.52343750
      2.05500746e+00 ,       21392.70507812
      2.06000280e+00 ,       21380.89453125
      2.06500602e+00 ,       21369.05468750
      2.07000136e+00 ,       21357.22070312
      2.07500458e+00 ,       21345.35546875
      2.08000779e+00 ,       21333.48046875
      2.08500314e+00 ,       21321.61132812
      2.09000635e+00 ,       21309.71289062
      2.09500170e+00 ,       21297.82031250
      2.10000491e+00 ,       21285.90039062
      2.10500026e+00 ,       21273.96875000
      2.11000347e+00 ,       21262.02539062
      2.11500669e+00 ,       21250.07226562
      2.12000203e+00 ,       21238.12695312
      2.12500525e+00 ,       21226.15039062
      2.13000059e+00 ,       21214.18359375
      2.13500357e+00 ,       21202.18554688
      2.14000678e+00 ,       21190.16992188
      2.14500213e+00 ,       21178.16796875
      2.15000534e+00 ,       21166.15429688
      2.15500069e+00 ,       21154.13085938
      2.16000390e+00 ,       21142.07226562
      2.16500711e+00 ,       21129.99609375
      2.17000246e+00 ,       21117.92578125
      2.17500567e+00 ,       21105.81835938
      2.18000102e+00 ,       21093.71289062
      2.18500423e+00 ,       21081.57031250
      2.19000745e+00 ,       21069.41015625
      2.19500279e+00 ,       21057.25000000
      2.20000601e+00 ,       21045.05273438
      2.20500135e+00 ,       21032.85546875
      2.21000457e+00 ,       21020.62304688
      2.21500754e+00 ,       21008.37109375
      2.22000289e+00 ,       20996.11914062
      2.22500610e+00 ,       20983.83203125
      2.23000145e+00 ,       20971.54882812
      2.23500466e+00 ,       20959.22851562
