        Displacement ,                Force
      0.00000000e+00 ,           0.00000000
      1.10890760e-05 ,           5.71928549
      1.55353337e-04 ,          79.94323730
      6.84540719e-04 ,         352.07217407
      1.87091634e-03 ,         961.92199707
      3.90837714e-03 ,        2008.75122070
      6.86998433e-03 ,        3529.36596680
      1.06907450e-02 ,        5489.38232422
      1.51598128e-02 ,        7779.56298828
      2.00132802e-02 ,        8925.15039062
      2.50079725e-02 ,        8994.56250000
      3.00053265e-02 ,        9053.83593750
      3.50026786e-02 ,        9111.97949219
      4.00000326e-02 ,        9169.50683594
      4.50057574e-02 ,        9226.47949219
      5.00031076e-02 ,        9282.49316406
      5.50004616e-02 ,        9337.96386719
      6.00061864e-02 ,        9393.09179688
      6.50035366e-02 ,        9447.71093750
      7.00008944e-02 ,        9501.92089844
      7.50066191e-02 ,        9555.78222656
      8.00039694e-02 ,        9609.15332031
      8.50013196e-02 ,        9662.07128906
      9.00070444e-02 ,        9714.54882812
      9.50044021e-02 ,        9766.54589844
      1.00001752e-01 ,        9818.15039062
      1.05007477e-01 ,        9869.26660156
      1.10004827e-01 ,        9919.84570312
      1.15002185e-01 ,        9970.05175781
      1.20007902e-01 ,       10019.97558594
      1.25005260e-01 ,       10069.45507812
      1.30002618e-01 ,       10118.57812500
      1.35008335e-01 ,       10167.43066406
      1.40005693e-01 ,       10215.85058594
      1.45003036e-01 ,       10263.92382812
      1.50000393e-01 ,       10311.53222656
      1.55006126e-01 ,       10358.86523438
      1.60003468e-01 ,       10405.74902344
      1.65000826e-01 ,       10452.29394531
      1.70006543e-01 ,       10498.58398438
      1.75003901e-01 ,       10544.45800781
      1.80001259e-01 ,       10589.98437500
      1.85006976e-01 ,       10635.25878906
      1.90004334e-01 ,       10680.13476562
      1.95001692e-01 ,       10724.69140625
      2.00007409e-01 ,       10769.00585938
      2.05004767e-01 ,       10812.92871094
      2.10002109e-01 ,       10856.52929688
      2.15007842e-01 ,       10899.87304688
      2.20005184e-01 ,       10942.81738281
      2.25002542e-01 ,       10985.38964844
      2.30008274e-01 ,       11027.67675781
      2.35005617e-01 ,       11069.58593750
      2.40002975e-01 ,       11111.19433594
      2.45000333e-01 ,       11152.50390625
      2.50006050e-01 ,       11193.58691406
      2.55003393e-01 ,       11234.30664062
      2.60000765e-01 ,       11274.73437500
      2.65006483e-01 ,       11314.93945312
      2.70003825e-01 ,       11354.79003906
      2.75001198e-01 ,       11394.35546875
      2.80006915e-01 ,       11433.70214844
      2.85004258e-01 ,       11472.70312500
      2.90001631e-01 ,       11511.42382812
      2.95007348e-01 ,       11549.93164062
      3.00004691e-01 ,       11588.09960938
      3.05002034e-01 ,       11625.99414062
      3.10007781e-01 ,       11663.67968750
      3.15005124e-01 ,       11701.03320312
      3.20002466e-01 ,       11738.11816406
      3.25008214e-01 ,       11774.99316406
      3.30005556e-01 ,       11811.53515625
      3.35002899e-01 ,       11847.81250000
      3.40000272e-01 ,       11883.82910156
      3.45005989e-01 ,       11919.64648438
      3.50003332e-01 ,       11955.14746094
      3.55000675e-01 ,       11990.39453125
      3.60006422e-01 ,       12025.44628906
      3.65003765e-01 ,       12060.18847656
      3.70001107e-01 ,       12094.68066406
      3.75006855e-01 ,       12128.98242188
      3.80004197e-01 ,       12162.98046875
      3.85001540e-01 ,       12196.73437500
      3.90007287e-01 ,       12230.30078125
      3.95004630e-01 ,       12263.57031250
      4.00001973e-01 ,       12296.60058594
      4.05007690e-01 ,       12329.44824219
      4.10005063e-01 ,       12362.00390625
      4.15002406e-01 ,       12394.32519531
      4.20008123e-01 ,       12426.46777344
      4.25005496e-01 ,       12458.32421875
      4.30002838e-01 ,       12489.95117188
      4.35000181e-01 ,       12521.34960938
      4.40005928e-01 ,       12552.57421875
      4.45003271e-01 ,       12583.52050781
      4.50000614e-01 ,       12614.24316406
      4.55006331e-01 ,       12644.79492188
      4.60003704e-01 ,       12675.07421875
      4.65001047e-01 ,       12705.13476562
      4.70006764e-01 ,       12735.02734375
      4.75004137e-01 ,       12764.65429688
      4.80001479e-01 ,       12794.06542969
      4.85007197e-01 ,       12823.31250000
      4.90004569e-01 ,       12852.29785156
      4.95001912e-01 ,       12881.07324219
      5.00007629e-01 ,       12909.68750000
      5.05005002e-01 ,       12938.04589844
      5.10002315e-01 ,       12966.19726562
      5.15008092e-01 ,       12994.19140625
      5.20005405e-01 ,       13021.93457031
      5.25002778e-01 ,       13049.47558594
      5.30000150e-01 ,       13076.81542969
      5.35005867e-01 ,       13104.00195312
      5.40003181e-01 ,       13130.94335938
      5.45000553e-01 ,       13157.68847656
      5.50006270e-01 ,       13184.28320312
      5.55003643e-01 ,       13210.63769531
      5.60000956e-01 ,       13236.79980469
      5.65006733e-01 ,       13262.81347656
      5.70004046e-01 ,       13288.59375000
      5.75001419e-01 ,       13314.18261719
      5.80007136e-01 ,       13339.62304688
      5.85004508e-01 ,       13364.83300781
      5.90001822e-01 ,       13389.85839844
      5.95007539e-01 ,       13414.74121094
      6.00004911e-01 ,       13439.39941406
      6.05002284e-01 ,       13463.87597656
      6.10008001e-01 ,       13488.21191406
      6.15005374e-01 ,       13512.32812500
      6.20002687e-01 ,       13536.26562500
      6.25000060e-01 ,       13560.02636719
      6.30005777e-01 ,       13583.65039062
      6.35003150e-01 ,       13607.06054688
      6.40000463e-01 ,       13630.29589844
      6.45006239e-01 ,       13653.39843750
      6.50003552e-01 ,       13676.29003906
      6.55000925e-01 ,       13699.01171875
      6.60006642e-01 ,       13721.60156250
      6.65004015e-01 ,       13743.98437500
      6.70001328e-01 ,       13766.20117188
      6.75007045e-01 ,       13788.28710938
      6.80004418e-01 ,       13810.16992188
      6.85001791e-01 ,       13831.88867188
      6.90007508e-01 ,       13853.47656250
      6.95004880e-01 ,       13874.86230469
      7.00002193e-01 ,       13896.08105469
      7.05007911e-01 ,       13917.16796875
      7.10005283e-01 ,       13938.05175781
      7.15002656e-01 ,       13958.76953125
      7.20008373e-01 ,       13979.35839844
      7.25005686e-01 ,       13999.75195312
      7.30003059e-01 ,       14019.98535156
      7.35000432e-01 ,       14040.06250000
      7.40006149e-01 ,       14060.01757812
      7.45003521e-01 ,       14079.78515625
      7.50000834e-01 ,       14099.40234375
      7.55006552e-01 ,       14118.90136719
      7.60003924e-01 ,       14138.21777344
      7.65001297e-01 ,       14157.38769531
      7.70007014e-01 ,       14176.44238281
      7.75004327e-01 ,       14195.31933594
      7.80001700e-01 ,       14214.05175781
      7.85007417e-01 ,       14232.67285156
      7.90004790e-01 ,       14251.11914062
      7.95002162e-01 ,       14269.42480469
      8.00007880e-01 ,       14287.62011719
      8.05005193e-01 ,       14305.64550781
      8.10002565e-01 ,       14323.53222656
      8.15008283e-01 ,       14341.31054688
      8.20005655e-01 ,       14358.92285156
      8.25003028e-01 ,       14376.39843750
      8.30000341e-01 ,       14393.73828125
      8.35006058e-01 ,       14410.97363281
      8.40003431e-01 ,       14428.04589844
      8.45000803e-01 ,       14444.98535156
      8.50006521e-01 ,       14461.82226562
      8.55003834e-01 ,       14478.49804688
      8.60001206e-01 ,       14495.04394531
      8.65006924e-01 ,       14511.48828125
      8.70004296e-01 ,       14527.77636719
      8.75001669e-01 ,       14543.93652344
      8.80007386e-01 ,       14559.99609375
      8.85004699e-01 ,       14575.90136719
      8.90002072e-01 ,       14591.68261719
      8.95007789e-01 ,       14607.36425781
      9.00005162e-01 ,       14622.89550781
      9.05002475e-01 ,       14638.30371094
      9.10008252e-01 ,       14653.61425781
      9.15005565e-01 ,       14668.77734375
      9.20002937e-01 ,       14683.81933594
      9.25000310e-01 ,       14698.74023438
      9.30006027e-01 ,       14713.56640625
      9.35003340e-01 ,       14728.24804688
      9.40000713e-01 ,       14742.81054688
      9.45006430e-01 ,       14757.27929688
      9.50003803e-01 ,       14771.60546875
      9.55001116e-01 ,       14785.81542969
      9.60006893e-01 ,       14799.93066406
      9.65004206e-01 ,       14813.90625000
      9.70001578e-01 ,       14827.76562500
      9.75007296e-01 ,       14841.53222656
      9.80004668e-01 ,       14855.15917969
      9.85001981e-01 ,       14868.67089844
      9.90007699e-01 ,       14882.09082031
      9.95005071e-01 ,       14895.37304688
      1.00000238e+00 ,       14908.54101562
      1.00500810e+00 ,       14921.61816406
      1.01000547e+00 ,       14934.56054688
      1.01500285e+00 ,       14947.39062500
      1.02000022e+00 ,       14960.11035156
      1.02500594e+00 ,       14972.74121094
      1.03000331e+00 ,       14985.24023438
      1.03500068e+00 ,       14997.63183594
      1.04000640e+00 ,       15009.93652344
      1.04500377e+00 ,       15022.11328125
      1.05000103e+00 ,       15034.18359375
      1.05500674e+00 ,       15046.16894531
      1.06000412e+00 ,       15058.03027344
      1.06500149e+00 ,       15069.78710938
      1.07000721e+00 ,       15081.46093750
      1.07500458e+00 ,       15093.01269531
      1.08000195e+00 ,       15104.46289062
      1.08500767e+00 ,       15115.83105469
      1.09000504e+00 ,       15127.07910156
      1.09500241e+00 ,       15138.22851562
      1.10000813e+00 ,       15149.29492188
      1.10500538e+00 ,       15160.24511719
      1.11000276e+00 ,       15171.09765625
      1.11500013e+00 ,       15181.85253906
      1.12000585e+00 ,       15192.52929688
      1.12500322e+00 ,       15203.09179688
      1.13000059e+00 ,       15213.55859375
      1.13500631e+00 ,       15223.94824219
      1.14000368e+00 ,       15234.22656250
      1.14500105e+00 ,       15244.41113281
      1.15000677e+00 ,       15254.51953125
      1.15500414e+00 ,       15264.51757812
      1.16000140e+00 ,       15274.42480469
      1.16500711e+00 ,       15284.25683594
      1.17000449e+00 ,       15293.98144531
      1.17500186e+00 ,       15303.61523438
      1.18000758e+00 ,       15313.17578125
      1.18500495e+00 ,       15322.63085938
      1.19000232e+00 ,       15331.99707031
      1.19500804e+00 ,       15341.29101562
      1.20000541e+00 ,       15350.48144531
      1.20500278e+00 ,       15359.58398438
      1.21000004e+00 ,       15368.60058594
      1.21500576e+00 ,       15377.54492188
      1.22000313e+00 ,       15386.38964844
      1.22500050e+00 ,       15395.14843750
      1.23000622e+00 ,       15403.83691406
      1.23500359e+00 ,       15412.42578125
      1.24000096e+00 ,       15420.93164062
      1.24500668e+00 ,       15429.36816406
      1.25000405e+00 ,       15437.70703125
      1.25500143e+00 ,       15445.96386719
      1.26000714e+00 ,       15454.15234375
      1.26500440e+00 ,       15462.24511719
      1.27000177e+00 ,       15470.25683594
      1.27500749e+00 ,       15478.20117188
      1.28000486e+00 ,       15486.05175781
      1.28500223e+00 ,       15493.82226562
      1.29000795e+00 ,       15501.52636719
      1.29500532e+00 ,       15509.13867188
      1.30000269e+00 ,       15516.67187500
      1.30500841e+00 ,       15524.14062500
      1.31000578e+00 ,       15531.51757812
      1.31500304e+00 ,       15538.81835938
      1.32000041e+00 ,       15546.04199219
      1.32500613e+00 ,       15553.20117188
      1.33000350e+00 ,       15560.27148438
      1.33500087e+00 ,       15567.26660156
      1.34000659e+00 ,       15574.19726562
      1.34500396e+00 ,       15581.04199219
      1.35000134e+00 ,       15587.81250000
      1.35500705e+00 ,       15594.51953125
      1.36000443e+00 ,       15601.14160156
      1.36500168e+00 ,       15607.67968750
      1.37000751e+00 ,       15614.18066406
      1.37500477e+00 ,       15620.58105469
      1.38000214e+00 ,       15626.91113281
      1.38500786e+00 ,       15633.18066406
      1.39000523e+00 ,       15639.36718750
      1.39500260e+00 ,       15645.48242188
      1.40000832e+00 ,       15651.53710938
      1.40500569e+00 ,       15657.51074219
      1.41000307e+00 ,       15663.41406250
      1.41500032e+00 ,       15669.24804688
      1.42000616e+00 ,       15675.02148438
      1.42500341e+00 ,       15680.71679688
      1.43000078e+00 ,       15686.34277344
      1.43500650e+00 ,       15691.91015625
      1.44000387e+00 ,       15697.39843750
      1.44500124e+00 ,       15702.82031250
      1.45000696e+00 ,       15708.18261719
      1.45500433e+00 ,       15713.46875000
      1.46000171e+00 ,       15718.68847656
      1.46500742e+00 ,       15723.84960938
      1.47000480e+00 ,       15728.93652344
      1.47500205e+00 ,       15733.95605469
      1.48000777e+00 ,       15738.91894531
      1.48500514e+00 ,       15743.80859375
      1.49000251e+00 ,       15748.63183594
      1.49500823e+00 ,       15753.39843750
      1.50000560e+00 ,       15758.09277344
      1.50500298e+00 ,       15762.72265625
      1.51000035e+00 ,       15767.28808594
      1.51500607e+00 ,       15771.79785156
      1.52000344e+00 ,       15776.23632812
      1.52500069e+00 ,       15780.61132812
      1.53000641e+00 ,       15784.93066406
      1.53500378e+00 ,       15789.18066406
      1.54000115e+00 ,       15793.36718750
      1.54500687e+00 ,       15797.49902344
      1.55000424e+00 ,       15801.56152344
      1.55500162e+00 ,       15805.56250000
      1.56000733e+00 ,       15809.50878906
      1.56500471e+00 ,       15813.38671875
      1.57000208e+00 ,       15817.20312500
      1.57500780e+00 ,       15820.96582031
      1.58000505e+00 ,       15824.66210938
      1.58500242e+00 ,       15828.29687500
      1.59000814e+00 ,       15831.87792969
      1.59500551e+00 ,       15835.39257812
      1.60000288e+00 ,       15838.84863281
      1.60500026e+00 ,       15842.24511719
      1.61000597e+00 ,       15845.58789062
      1.61500335e+00 ,       15848.86523438
      1.62000072e+00 ,       15852.08398438
      1.62500644e+00 ,       15855.24902344
      1.63000369e+00 ,       15858.35058594
      1.63500106e+00 ,       15861.39355469
      1.64000678e+00 ,       15864.38378906
      1.64500415e+00 ,       15867.31054688
      1.65000153e+00 ,       15870.17968750
      1.65500724e+00 ,       15872.99609375
      1.66000462e+00 ,       15875.75000000
      1.66500199e+00 ,       15878.44726562
      1.67000771e+00 ,       15881.09082031
      1.67500508e+00 ,       15883.67285156
      1.68000233e+00 ,       15886.19921875
      1.68500817e+00 ,       15888.67187500
      1.69000542e+00 ,       15891.08398438
      1.69500279e+00 ,       15893.44042969
      1.70000017e+00 ,       15895.73925781
      1.70500588e+00 ,       15897.98632812
      1.71000326e+00 ,       15900.17382812
      1.71500063e+00 ,       15902.30468750
      1.72000635e+00 ,       15904.38378906
      1.72500372e+00 ,       15906.40332031
      1.73000109e+00 ,       15908.36718750
      1.73500681e+00 ,       15910.27832031
      1.74000406e+00 ,       15912.13183594
      1.74500144e+00 ,       15913.92871094
      1.75000715e+00 ,       15915.67382812
      1.75500453e+00 ,       15917.36035156
      1.76000190e+00 ,       15918.99218750
      1.76500762e+00 ,       15920.57031250
      1.77000499e+00 ,       15922.09179688
      1.77500236e+00 ,       15923.55761719
      1.78000808e+00 ,       15924.97070312
      1.78500545e+00 ,       15926.32714844
      1.79000270e+00 ,       15927.62792969
      1.79500008e+00 ,       15928.87402344
      1.80000579e+00 ,       15930.06738281
      1.80500317e+00 ,       15931.20312500
      1.81000054e+00 ,       15932.28417969
      1.81500626e+00 ,       15933.31152344
      1.82000363e+00 ,       15934.28320312
      1.82500100e+00 ,       15935.19921875
      1.83000672e+00 ,       15936.06152344
      1.83500409e+00 ,       15936.86718750
      1.84000134e+00 ,       15937.61718750
      1.84500706e+00 ,       15938.31445312
      1.85000443e+00 ,       15938.95410156
      1.85500181e+00 ,       15939.53808594
      1.86000752e+00 ,       15940.06835938
      1.86500490e+00 ,       15940.54199219
      1.87000227e+00 ,       15940.95898438
      1.87500799e+00 ,       15941.32226562
      1.88000536e+00 ,       15941.42187500
      1.88500273e+00 ,       15941.92480469
      1.89000845e+00 ,       15942.08691406
      1.89500570e+00 ,       15942.22167969
      1.90000308e+00 ,       15942.30371094
      1.90500045e+00 ,       15942.32714844
      1.91000617e+00 ,       15942.29394531
      1.91500354e+00 ,       15942.20312500
      1.92000091e+00 ,       15942.05468750
      1.92500663e+00 ,       15941.84765625
      1.93000400e+00 ,       15941.58398438
      1.93500137e+00 ,       15941.26074219
      1.94000709e+00 ,       15940.87988281
      1.94500446e+00 ,       15940.43945312
      1.95000172e+00 ,       15939.94042969
      1.95500743e+00 ,       15939.38085938
      1.96000481e+00 ,       15938.76171875
      1.96500218e+00 ,       15938.08300781
      1.97000790e+00 ,       15937.34277344
      1.97500527e+00 ,       15936.54199219
      1.98000264e+00 ,       15935.67968750
      1.98500836e+00 ,       15934.75488281
      1.99000573e+00 ,       15933.76953125
      1.99500310e+00 ,       15932.72070312
      2.00000048e+00 ,       15931.60937500
      2.00500607e+00 ,       15930.43261719
      2.01000357e+00 ,       15929.19433594
      2.01500082e+00 ,       15927.89160156
      2.02000666e+00 ,       15926.52050781
      2.02500391e+00 ,       15925.08789062
      2.03000116e+00 ,       15923.58886719
      2.03500700e+00 ,       15922.02148438
      2.04000425e+00 ,       15920.38964844
      2.04500175e+00 ,       15918.69140625
      2.05000734e+00 ,       15916.92285156
      2.05500484e+00 ,       15915.08984375
      2.06000209e+00 ,       15913.18847656
      2.06500793e+00 ,       15911.21679688
      2.07000518e+00 ,       15909.17968750
      2.07500243e+00 ,       15907.07421875
      2.08000827e+00 ,       15904.89648438
      2.08500552e+00 ,       15902.65332031
      2.09000301e+00 ,       15900.34082031
      2.09500027e+00 ,       15897.95898438
      2.10000610e+00 ,       15895.50292969
      2.10500336e+00 ,       15892.98144531
      2.11000085e+00 ,       15890.39062500
      2.11500645e+00 ,       15887.72558594
      2.12000394e+00 ,       15884.99511719
      2.12500119e+00 ,       15882.19433594
      2.13000703e+00 ,       15879.31835938
      2.13500428e+00 ,       15876.37695312
      2.14000154e+00 ,       15873.36523438
      2.14500737e+00 ,       15870.27636719
      2.15000463e+00 ,       15867.12304688
      2.15500212e+00 ,       15863.89746094
      2.16000772e+00 ,       15860.59472656
      2.16500521e+00 ,       15857.22753906
      2.17000246e+00 ,       15853.78906250
      2.17500830e+00 ,       15850.27343750
      2.18000555e+00 ,       15846.69433594
      2.18500280e+00 ,       15843.04296875
      2.19000030e+00 ,       15839.32128906
      2.19500589e+00 ,       15835.52148438
      2.20000339e+00 ,       15831.65722656
      2.20500064e+00 ,       15827.72167969
      2.21000648e+00 ,       15823.70800781
      2.21500373e+00 ,       15819.62988281
      2.22000122e+00 ,       15815.47949219
      2.22500682e+00 ,       15811.25097656
      2.23000431e+00 ,       15806.95800781
      2.23500156e+00 ,       15802.59179688
