        Displacement ,                Force
      0.00000000e+00 ,           0.00000000
      1.10890760e-05 ,           6.78531075
      1.55353337e-04 ,          94.88194275
      6.84540719e-04 ,         417.90145874
      1.87091611e-03 ,        1141.83642578
      3.90837528e-03 ,        2384.55834961
      6.86997641e-03 ,        4189.82519531
      1.06907208e-02 ,        6516.89599609
      1.51597578e-02 ,        9236.15820312
      2.00131666e-02 ,       12186.08496094
      2.50077751e-02 ,       13324.72460938
      3.00082061e-02 ,       13503.22460938
      3.50074135e-02 ,       13646.07031250
      4.00068425e-02 ,       13778.66601562
      4.50014621e-02 ,       13903.57617188
      5.00043593e-02 ,       14025.34277344
      5.50072752e-02 ,       14143.47656250
      6.00019395e-02 ,       14260.19042969
      6.50049001e-02 ,       14376.10742188
      7.00068325e-02 ,       14490.04687500
      7.50054121e-02 ,       14602.05761719
      8.00039619e-02 ,       14712.98535156
      8.50024819e-02 ,       14822.94140625
      9.00009722e-02 ,       14931.93554688
      9.50077772e-02 ,       15040.20507812
      1.00006215e-01 ,       15147.36230469
      1.05004616e-01 ,       15253.62304688
      1.10003002e-01 ,       15358.68066406
      1.15001380e-01 ,       15462.80371094
      1.20001853e-01 ,       15566.10546875
      1.25003174e-01 ,       15668.54199219
      1.30004495e-01 ,       15770.12109375
      1.35005802e-01 ,       15870.84765625
      1.40007123e-01 ,       15970.41992188
      1.45000070e-01 ,       16068.72753906
      1.50001392e-01 ,       16166.35839844
      1.55002698e-01 ,       16263.15527344
      1.60004005e-01 ,       16359.11621094
      1.65005311e-01 ,       16454.25976562
      1.70006618e-01 ,       16548.59570312
      1.75007924e-01 ,       16642.14257812
      1.80000886e-01 ,       16734.74804688
      1.85006633e-01 ,       16826.79687500
      1.90005049e-01 ,       16917.99023438
      1.95003465e-01 ,       17008.36132812
      2.00001895e-01 ,       17097.97265625
      2.05000311e-01 ,       17186.83007812
      2.10007086e-01 ,       17275.08789062
      2.15005502e-01 ,       17362.45117188
      2.20003933e-01 ,       17449.08593750
      2.25002348e-01 ,       17534.98242188
      2.30000779e-01 ,       17620.15429688
      2.35007554e-01 ,       17704.74804688
      2.40005985e-01 ,       17788.48242188
      2.45004416e-01 ,       17871.50585938
      2.50002831e-01 ,       17953.82421875
      2.55001277e-01 ,       18035.43945312
      2.60008067e-01 ,       18116.47265625
      2.65006512e-01 ,       18196.67187500
      2.70004958e-01 ,       18276.17187500
      2.75003403e-01 ,       18354.94726562
      2.80001849e-01 ,       18433.02929688
      2.85000265e-01 ,       18510.43554688
      2.90007085e-01 ,       18587.30078125
      2.95005500e-01 ,       18663.37500000
      3.00003916e-01 ,       18738.79101562
      3.05002362e-01 ,       18813.55468750
      3.10000777e-01 ,       18887.67382812
      3.15007538e-01 ,       18961.27343750
      3.20005953e-01 ,       19034.11328125
      3.25004369e-01 ,       19106.32226562
      3.30002785e-01 ,       19177.90625000
      3.35001171e-01 ,       19248.86718750
      3.40007931e-01 ,       19319.33007812
      3.45006317e-01 ,       19389.06054688
      3.50004703e-01 ,       19458.18750000
      3.55003089e-01 ,       19526.71093750
      3.60001475e-01 ,       19594.63671875
      3.65008205e-01 ,       19662.08398438
      3.70006591e-01 ,       19728.82812500
      3.75004947e-01 ,       19794.98828125
      3.80003303e-01 ,       19860.57031250
      3.85001659e-01 ,       19925.57421875
      3.90000045e-01 ,       19990.00976562
      3.95006746e-01 ,       20053.98242188
      4.00005102e-01 ,       20117.28515625
      4.05003428e-01 ,       20180.02148438
      4.10001785e-01 ,       20242.20507812
      4.15000111e-01 ,       20303.83984375
      4.20006812e-01 ,       20365.03125000
      4.25005138e-01 ,       20425.58203125
      4.30003464e-01 ,       20485.59570312
      4.35001791e-01 ,       20545.08007812
      4.40000117e-01 ,       20604.03710938
      4.45006788e-01 ,       20662.57031250
      4.50005114e-01 ,       20720.48437500
      4.55003411e-01 ,       20777.88476562
      4.60001737e-01 ,       20834.77539062
      4.65000033e-01 ,       20891.16015625
      4.70006704e-01 ,       20947.13476562
      4.75005001e-01 ,       21002.52148438
      4.80003297e-01 ,       21057.40625000
      4.85001594e-01 ,       21111.80273438
      4.90008235e-01 ,       21165.80468750
      4.95006531e-01 ,       21219.23242188
      5.00004828e-01 ,       21272.17968750
      5.05003095e-01 ,       21324.65429688
      5.10001361e-01 ,       21376.65625000
      5.15007973e-01 ,       21428.27734375
      5.20006239e-01 ,       21479.34765625
      5.25004566e-01 ,       21529.95507812
      5.30002832e-01 ,       21580.12304688
      5.35001040e-01 ,       21629.82617188
      5.40007710e-01 ,       21679.16015625
      5.45005918e-01 ,       21727.97265625
      5.50004184e-01 ,       21776.33789062
      5.55002451e-01 ,       21824.26367188
      5.60000718e-01 ,       21871.75585938
      5.65007329e-01 ,       21918.89453125
      5.70005536e-01 ,       21965.52539062
      5.75003803e-01 ,       22011.73046875
      5.80002010e-01 ,       22057.51562500
      5.85000277e-01 ,       22102.88085938
      5.90006888e-01 ,       22147.90625000
      5.95005095e-01 ,       22192.44335938
      6.00003302e-01 ,       22236.57421875
      6.05001569e-01 ,       22280.29687500
      6.10008121e-01 ,       22323.69140625
      6.15006328e-01 ,       22366.61132812
      6.20004535e-01 ,       22409.13671875
      6.25002742e-01 ,       22451.26757812
      6.30000949e-01 ,       22493.00781250
      6.35007560e-01 ,       22534.42773438
      6.40005767e-01 ,       22575.39453125
      6.45003915e-01 ,       22615.97656250
      6.50002122e-01 ,       22656.17968750
      6.55000329e-01 ,       22696.00781250
      6.60006881e-01 ,       22735.52539062
      6.65005088e-01 ,       22774.60742188
      6.70003235e-01 ,       22813.32226562
      6.75001442e-01 ,       22851.67187500
      6.80007994e-01 ,       22889.72265625
      6.85006142e-01 ,       22927.35156250
      6.90004349e-01 ,       22964.62304688
      6.95002496e-01 ,       23001.54296875
      7.00000703e-01 ,       23038.11132812
      7.05007255e-01 ,       23074.39453125
      7.10005403e-01 ,       23110.27148438
      7.15003610e-01 ,       23145.80468750
      7.20001757e-01 ,       23181.00000000
      7.25008309e-01 ,       23215.91601562
      7.30006456e-01 ,       23250.43945312
      7.35004663e-01 ,       23284.63281250
      7.40002811e-01 ,       23318.49609375
      7.45000958e-01 ,       23352.03320312
      7.50007510e-01 ,       23385.30078125
      7.55005658e-01 ,       23418.19140625
      7.60003865e-01 ,       23450.77148438
      7.65002012e-01 ,       23483.01953125
      7.70000160e-01 ,       23514.96093750
      7.75006711e-01 ,       23546.64257812
      7.80004859e-01 ,       23577.96093750
      7.85003066e-01 ,       23608.97265625
      7.90001214e-01 ,       23639.67968750
      7.95007765e-01 ,       23670.13281250
      8.00005913e-01 ,       23700.23437500
      8.05004060e-01 ,       23730.03906250
      8.10002267e-01 ,       23759.54687500
      8.15000415e-01 ,       23788.76171875
      8.20006967e-01 ,       23817.73242188
      8.25005114e-01 ,       23846.36328125
      8.30003262e-01 ,       23874.71484375
      8.35001469e-01 ,       23902.77929688
      8.40007961e-01 ,       23930.60742188
      8.45006168e-01 ,       23958.10742188
      8.50004315e-01 ,       23985.33203125
      8.55002463e-01 ,       24012.28125000
      8.60000670e-01 ,       24038.95898438
      8.65007162e-01 ,       24065.40820312
      8.70005369e-01 ,       24091.54492188
      8.75003517e-01 ,       24117.41406250
      8.80001724e-01 ,       24143.01953125
      8.85008216e-01 ,       24168.40429688
      8.90006423e-01 ,       24193.48828125
      8.95004570e-01 ,       24218.31054688
      9.00002778e-01 ,       24242.87890625
      9.05000925e-01 ,       24267.19140625
      9.10007477e-01 ,       24291.29101562
      9.15005684e-01 ,       24315.09960938
      9.20003831e-01 ,       24338.66015625
      9.25002038e-01 ,       24361.97460938
      9.30000186e-01 ,       24385.04296875
      9.35006738e-01 ,       24407.90625000
      9.40004945e-01 ,       24430.48828125
      9.45003092e-01 ,       24452.83203125
      9.50001299e-01 ,       24474.93750000
      9.55007851e-01 ,       24496.84375000
      9.60006058e-01 ,       24518.47851562
      9.65004206e-01 ,       24539.88085938
      9.70002413e-01 ,       24561.05273438
      9.75000620e-01 ,       24581.99609375
      9.80007172e-01 ,       24602.74414062
      9.85005379e-01 ,       24623.23242188
      9.90003526e-01 ,       24643.49804688
      9.95001733e-01 ,       24663.53906250
      1.00000834e+00 ,       24683.39257812
      1.00500655e+00 ,       24702.99414062
      1.01000464e+00 ,       24722.37695312
      1.01500285e+00 ,       24741.54492188
      1.02000105e+00 ,       24760.49609375
      1.02500761e+00 ,       24779.26757812
      1.03000581e+00 ,       24797.79492188
      1.03500402e+00 ,       24816.11132812
      1.04000223e+00 ,       24834.22070312
      1.04500043e+00 ,       24852.12304688
      1.05000710e+00 ,       24869.84765625
      1.05500531e+00 ,       24887.33984375
      1.06000352e+00 ,       24904.62890625
      1.06500173e+00 ,       24921.71679688
      1.07000828e+00 ,       24938.63085938
      1.07500648e+00 ,       24955.32031250
      1.08000505e+00 ,       24971.83593750
      1.08500612e+00 ,       24988.14648438
      1.09000731e+00 ,       25004.26171875
      1.09500229e+00 ,       25019.96679688
      1.10000789e+00 ,       25035.91601562
      1.10500526e+00 ,       25051.45117188
      1.11000252e+00 ,       25066.79296875
      1.11500812e+00 ,       25081.96875000
      1.12000537e+00 ,       25096.93359375
      1.12500262e+00 ,       25111.71093750
      1.13000822e+00 ,       25126.32812500
      1.13500547e+00 ,       25140.73632812
      1.14000273e+00 ,       25154.97656250
      1.14500833e+00 ,       25169.04101562
      1.15000558e+00 ,       25182.91015625
      1.15500283e+00 ,       25196.59960938
      1.16000009e+00 ,       25210.11718750
      1.16500568e+00 ,       25223.47460938
      1.17000294e+00 ,       25236.63671875
      1.17500019e+00 ,       25249.63867188
      1.18000579e+00 ,       25262.46484375
      1.18500292e+00 ,       25275.10937500
      1.19000018e+00 ,       25287.58398438
      1.19500577e+00 ,       25299.91015625
      1.20000303e+00 ,       25312.04687500
      1.20500016e+00 ,       25324.01757812
      1.21000576e+00 ,       25335.84179688
      1.21500301e+00 ,       25347.48046875
      1.22000015e+00 ,       25358.95507812
      1.22500575e+00 ,       25370.28515625
      1.23000300e+00 ,       25381.43554688
      1.23500013e+00 ,       25392.42578125
      1.24000573e+00 ,       25403.27148438
      1.24500299e+00 ,       25413.94140625
      1.25000012e+00 ,       25424.45312500
      1.25500572e+00 ,       25434.82617188
      1.26000285e+00 ,       25445.02343750
      1.26499999e+00 ,       25455.06640625
      1.27000558e+00 ,       25464.97265625
      1.27500272e+00 ,       25474.70703125
      1.28000832e+00 ,       25484.30468750
      1.28500545e+00 ,       25493.73437500
      1.29000270e+00 ,       25503.01367188
      1.29500818e+00 ,       25512.15820312
      1.30000532e+00 ,       25521.13671875
      1.30500257e+00 ,       25529.96679688
      1.31000805e+00 ,       25538.66406250
      1.31500518e+00 ,       25547.19921875
      1.32000232e+00 ,       25555.58984375
      1.32500792e+00 ,       25563.84570312
      1.33000505e+00 ,       25571.94531250
      1.33500218e+00 ,       25579.90039062
      1.34000766e+00 ,       25587.72460938
      1.34500480e+00 ,       25595.39257812
      1.35000193e+00 ,       25602.91796875
      1.35500753e+00 ,       25610.31445312
      1.36000466e+00 ,       25617.55859375
      1.36500180e+00 ,       25624.66210938
      1.37000728e+00 ,       25631.63671875
      1.37500441e+00 ,       25638.46093750
      1.38000154e+00 ,       25645.14648438
      1.38500702e+00 ,       25651.70703125
      1.39000416e+00 ,       25658.11718750
      1.39500129e+00 ,       25664.39062500
      1.40000677e+00 ,       25670.53906250
      1.40500391e+00 ,       25676.54101562
      1.41000092e+00 ,       25682.40820312
      1.41500652e+00 ,       25688.14843750
      1.42000353e+00 ,       25693.74609375
      1.42500067e+00 ,       25699.20898438
      1.43000615e+00 ,       25704.54687500
      1.43500328e+00 ,       25709.74218750
      1.44000041e+00 ,       25714.80468750
      1.44500589e+00 ,       25719.74414062
      1.45000291e+00 ,       25724.54296875
      1.45500004e+00 ,       25729.20898438
      1.46000552e+00 ,       25733.75000000
      1.46500266e+00 ,       25738.15429688
      1.47000813e+00 ,       25742.43359375
      1.47500515e+00 ,       25746.57421875
      1.48000228e+00 ,       25750.58398438
      1.48500776e+00 ,       25754.47070312
      1.49000478e+00 ,       25758.21875000
      1.49500191e+00 ,       25761.83789062
      1.50000739e+00 ,       25765.33203125
      1.50500453e+00 ,       25768.69140625
      1.51000154e+00 ,       25771.91992188
      1.51500702e+00 ,       25775.02343750
      1.52000415e+00 ,       25778.06054688
      1.52500117e+00 ,       25780.84570312
      1.53000665e+00 ,       25783.55859375
      1.53500378e+00 ,       25786.13671875
      1.54000080e+00 ,       25788.58398438
      1.54500628e+00 ,       25790.90429688
      1.55000329e+00 ,       25793.08984375
      1.55500042e+00 ,       25795.14648438
      1.56000590e+00 ,       25797.07031250
      1.56500292e+00 ,       25798.85937500
      1.57000840e+00 ,       25800.51953125
      1.57500553e+00 ,       25802.04492188
      1.58000696e+00 ,       25802.56835938
      1.58500552e+00 ,       25804.76367188
      1.59000432e+00 ,       25805.91601562
      1.59500325e+00 ,       25807.00195312
      1.60000217e+00 ,       25807.78906250
      1.60500097e+00 ,       25808.52343750
      1.61000764e+00 ,       25809.11718750
      1.61500645e+00 ,       25809.57031250
      1.62000537e+00 ,       25809.76367188
      1.62500429e+00 ,       25810.08593750
      1.63000309e+00 ,       25810.09570312
      1.63500202e+00 ,       25809.99414062
      1.64000094e+00 ,       25809.74414062
      1.64500749e+00 ,       25809.35156250
      1.65000641e+00 ,       25808.81445312
      1.65500522e+00 ,       25808.13085938
      1.66000414e+00 ,       25807.30078125
      1.66500306e+00 ,       25806.32226562
      1.67000186e+00 ,       25805.19726562
      1.67500079e+00 ,       25803.92187500
      1.68000734e+00 ,       25802.49218750
      1.68500626e+00 ,       25800.91210938
      1.69000518e+00 ,       25799.17968750
      1.69500411e+00 ,       25797.29101562
      1.70000291e+00 ,       25795.24804688
      1.70500183e+00 ,       25793.04882812
      1.71000075e+00 ,       25790.68945312
      1.71500731e+00 ,       25788.16796875
      1.72000623e+00 ,       25785.48828125
      1.72500503e+00 ,       25782.64843750
      1.73000395e+00 ,       25779.64453125
      1.73500288e+00 ,       25776.47656250
      1.74000180e+00 ,       25773.14257812
      1.74500060e+00 ,       25769.64257812
      1.75000727e+00 ,       25765.97070312
      1.75500619e+00 ,       25762.13867188
      1.76000500e+00 ,       25758.13867188
      1.76500392e+00 ,       25753.97070312
      1.77000284e+00 ,       25749.63476562
      1.77500165e+00 ,       25745.12890625
      1.78000057e+00 ,       25740.44921875
      1.78500724e+00 ,       25735.59179688
      1.79000616e+00 ,       25730.56835938
      1.79500496e+00 ,       25725.36914062
      1.80000389e+00 ,       25719.99218750
      1.80500281e+00 ,       25714.44140625
      1.81000173e+00 ,       25708.71093750
      1.81500053e+00 ,       25702.80273438
      1.82000721e+00 ,       25696.70507812
      1.82500613e+00 ,       25690.43750000
      1.83000505e+00 ,       25683.99414062
      1.83500397e+00 ,       25677.37109375
      1.84000278e+00 ,       25670.56835938
      1.84500170e+00 ,       25663.58593750
      1.85000062e+00 ,       25656.42578125
      1.85500729e+00 ,       25649.07226562
      1.86000621e+00 ,       25641.54882812
      1.86500502e+00 ,       25633.84570312
      1.87000394e+00 ,       25625.96093750
      1.87500286e+00 ,       25617.89257812
      1.88000178e+00 ,       25609.64453125
      1.88500071e+00 ,       25601.21289062
      1.89000738e+00 ,       25592.58398438
      1.89500630e+00 ,       25583.78710938
      1.90000522e+00 ,       25574.80859375
      1.90500414e+00 ,       25565.64648438
      1.91000307e+00 ,       25556.30273438
      1.91500199e+00 ,       25546.77539062
      1.92000091e+00 ,       25537.06640625
      1.92500746e+00 ,       25527.16015625
      1.93000638e+00 ,       25517.08789062
      1.93500531e+00 ,       25506.83398438
      1.94000423e+00 ,       25496.40039062
      1.94500315e+00 ,       25485.78320312
      1.95000207e+00 ,       25474.98828125
      1.95500100e+00 ,       25464.01171875
      1.96000767e+00 ,       25452.83984375
      1.96500659e+00 ,       25441.50781250
      1.97000551e+00 ,       25430.00000000
      1.97500455e+00 ,       25418.31445312
      1.98000348e+00 ,       25406.45703125
      1.98500240e+00 ,       25394.42578125
      1.99000132e+00 ,       25382.22265625
      1.99500024e+00 ,       25369.84765625
      2.00000691e+00 ,       25357.28320312
      2.00500584e+00 ,       25344.57031250
      2.01000476e+00 ,       25331.68750000
      2.01500368e+00 ,       25318.63867188
      2.02000260e+00 ,       25305.42382812
      2.02500153e+00 ,       25292.04687500
      2.03000045e+00 ,       25278.50390625
      2.03500724e+00 ,       25264.77734375
      2.04000616e+00 ,       25250.91210938
      2.04500508e+00 ,       25236.88671875
      2.05000401e+00 ,       25222.70117188
      2.05500293e+00 ,       25208.35937500
      2.06000209e+00 ,       25193.85937500
      2.06500101e+00 ,       25179.20507812
      2.07000756e+00 ,       25164.37304688
      2.07500648e+00 ,       25149.41015625
      2.08000565e+00 ,       25134.29492188
      2.08500457e+00 ,       25119.02929688
      2.09000349e+00 ,       25103.61328125
      2.09500241e+00 ,       25088.04882812
      2.10000134e+00 ,       25072.33789062
      2.10500050e+00 ,       25056.47851562
      2.11000705e+00 ,       25040.44921875
      2.11500597e+00 ,       25024.29882812
      2.12000489e+00 ,       25008.00585938
      2.12500405e+00 ,       24991.57031250
      2.13000298e+00 ,       24974.99414062
      2.13500190e+00 ,       24958.27734375
      2.14000082e+00 ,       24941.42187500
      2.14500761e+00 ,       24924.40039062
      2.15000653e+00 ,       24907.26757812
      2.15500569e+00 ,       24890.00000000
      2.16000462e+00 ,       24872.59570312
      2.16500354e+00 ,       24855.05664062
      2.17000246e+00 ,       24837.38476562
      2.17500162e+00 ,       24819.58007812
      2.18000054e+00 ,       24801.64257812
      2.18500733e+00 ,       24783.54882812
      2.19000626e+00 ,       24765.34960938
      2.19500518e+00 ,       24747.02148438
      2.20000434e+00 ,       24728.56445312
      2.20500326e+00 ,       24709.98046875
      2.21000218e+00 ,       24691.26953125
      2.21500134e+00 ,       24672.43164062
      2.22000027e+00 ,       24653.46875000
      2.22500706e+00 ,       24634.35351562
      2.23000598e+00 ,       24615.14257812
      2.23500490e+00 ,       24595.81054688
