        Displacement ,                Force
      0.00000000e+00 ,           0.00000000
      1.10890760e-05 ,           6.78531075
      1.55353337e-04 ,          94.88194275
      6.84540719e-04 ,         417.90145874
      1.87091611e-03 ,        1141.83642578
      3.90837528e-03 ,        2384.55834961
      6.86997641e-03 ,        4189.82519531
      1.06907208e-02 ,        6516.89599609
      1.51597578e-02 ,        9236.15820312
      2.00131666e-02 ,       12185.50585938
      2.50077788e-02 ,       13351.60742188
      3.00050508e-02 ,       13528.33007812
      3.50023247e-02 ,       13669.27539062
      4.00067605e-02 ,       13800.56542969
      4.50061038e-02 ,       13926.15332031
      5.00075705e-02 ,       14047.10253906
      5.50006889e-02 ,       14165.07714844
      6.00038208e-02 ,       14282.10156250
      6.50010929e-02 ,       14397.88671875
      7.00067356e-02 ,       14511.44824219
      7.50040114e-02 ,       14623.51171875
      8.00012797e-02 ,       14734.56933594
      8.50069225e-02 ,       14844.84375000
      9.00041983e-02 ,       14953.98925781
      9.50014666e-02 ,       15062.20703125
      1.00007117e-01 ,       15169.65820312
      1.05004385e-01 ,       15275.83398438
      1.10001661e-01 ,       15380.98828125
      1.15007304e-01 ,       15485.41992188
      1.20004572e-01 ,       15588.79980469
      1.25001848e-01 ,       15691.31054688
      1.30007491e-01 ,       15793.10937500
      1.35004759e-01 ,       15893.57812500
      1.40002042e-01 ,       15992.95507812
      1.45007685e-01 ,       16091.63574219
      1.50004953e-01 ,       16189.30664062
      1.55002221e-01 ,       16286.14062500
      1.60007864e-01 ,       16382.30761719
      1.65005147e-01 ,       16477.50000000
      1.70002416e-01 ,       16571.89257812
      1.75008059e-01 ,       16665.64453125
      1.80005327e-01 ,       16758.45117188
      1.85002610e-01 ,       16850.47656250
      1.90008253e-01 ,       16941.88085938
      1.95005521e-01 ,       17032.36132812
      2.00002789e-01 ,       17122.08203125
      2.05000058e-01 ,       17211.04492188
      2.10005715e-01 ,       17299.40429688
      2.15001017e-01 ,       17386.88867188
      2.20002890e-01 ,       17473.68554688
      2.25004762e-01 ,       17559.74804688
      2.30002105e-01 ,       17645.14257812
      2.35003084e-01 ,       17729.59960938
      2.40004063e-01 ,       17813.46484375
      2.45004937e-01 ,       17896.60546875
      2.50005931e-01 ,       17979.03710938
      2.55006909e-01 ,       18060.75585938
      2.60007918e-01 ,       18141.75781250
      2.65000552e-01 ,       18221.90234375
      2.70001531e-01 ,       18301.47656250
      2.75002539e-01 ,       18380.36132812
      2.80003518e-01 ,       18458.56835938
      2.85004497e-01 ,       18536.09765625
      2.90005475e-01 ,       18612.96093750
      2.95006454e-01 ,       18689.15820312
      3.00007433e-01 ,       18764.69726562
      3.05000037e-01 ,       18839.45898438
      3.10000986e-01 ,       18913.69726562
      3.15001965e-01 ,       18987.29296875
      3.20002913e-01 ,       19060.25195312
      3.25003862e-01 ,       19132.57812500
      3.30004811e-01 ,       19204.27539062
      3.35005730e-01 ,       19275.34960938
      3.40006679e-01 ,       19345.80664062
      3.45007598e-01 ,       19415.65039062
      3.50000173e-01 ,       19484.77148438
      3.55001092e-01 ,       19553.40234375
      3.60002011e-01 ,       19621.43554688
      3.65002930e-01 ,       19688.87304688
      3.70003849e-01 ,       19755.72070312
      3.75004739e-01 ,       19821.98437500
      3.80005658e-01 ,       19887.66406250
      3.85006547e-01 ,       19952.76367188
      3.90007436e-01 ,       20017.28906250
      3.95008326e-01 ,       20081.24609375
      4.00000870e-01 ,       20144.53320312
      4.05001760e-01 ,       20207.36914062
      4.10002619e-01 ,       20269.65039062
      4.15003508e-01 ,       20331.38281250
      4.20004368e-01 ,       20392.57031250
      4.25005227e-01 ,       20453.21679688
      4.30006087e-01 ,       20513.32812500
      4.35006946e-01 ,       20572.90625000
      4.40007806e-01 ,       20631.95703125
      4.45000321e-01 ,       20690.38671875
      4.50001180e-01 ,       20748.39453125
      4.55002010e-01 ,       20805.88867188
      4.60002869e-01 ,       20862.86914062
      4.65003699e-01 ,       20919.34375000
      4.70004529e-01 ,       20975.31445312
      4.75005358e-01 ,       21030.78515625
      4.80006188e-01 ,       21085.76171875
      4.85007018e-01 ,       21140.24609375
      4.90007848e-01 ,       21194.24218750
      4.95000303e-01 ,       21247.66601562
      5.00001132e-01 ,       21300.70117188
      5.05001962e-01 ,       21353.25781250
      5.10002732e-01 ,       21405.34375000
      5.15003562e-01 ,       21456.95898438
      5.20004332e-01 ,       21508.10937500
      5.25005162e-01 ,       21558.79882812
      5.30005932e-01 ,       21609.02929688
      5.35006762e-01 ,       21658.80664062
      5.40007532e-01 ,       21708.13281250
      5.45008302e-01 ,       21757.01171875
      5.50000727e-01 ,       21805.36718750
      5.55001557e-01 ,       21853.36328125
      5.60002327e-01 ,       21900.92382812
      5.65003097e-01 ,       21948.05078125
      5.70003867e-01 ,       21994.74609375
      5.75004578e-01 ,       22041.01562500
      5.80005348e-01 ,       22086.86328125
      5.85006118e-01 ,       22132.29101562
      5.90006888e-01 ,       22177.30078125
      5.95007598e-01 ,       22221.89843750
      6.00008368e-01 ,       22266.08398438
      6.05000734e-01 ,       22309.78906250
      6.10001504e-01 ,       22353.16601562
      6.15002215e-01 ,       22396.13867188
      6.20002925e-01 ,       22438.71484375
      6.25003695e-01 ,       22480.89453125
      6.30004406e-01 ,       22522.68359375
      6.35005116e-01 ,       22564.08203125
      6.40005827e-01 ,       22605.09375000
      6.45006537e-01 ,       22645.72460938
      6.50007248e-01 ,       22685.97460938
      6.55007958e-01 ,       22725.84765625
      6.60000324e-01 ,       22765.27929688
      6.65001035e-01 ,       22804.40820312
      6.70001745e-01 ,       22843.16796875
      6.75002456e-01 ,       22881.56445312
      6.80003166e-01 ,       22919.59765625
      6.85003817e-01 ,       22957.27148438
      6.90004528e-01 ,       22994.58984375
      6.95005238e-01 ,       23031.55273438
      7.00005949e-01 ,       23068.16601562
      7.05006599e-01 ,       23104.43164062
      7.10007310e-01 ,       23140.35156250
      7.15008020e-01 ,       23175.92968750
      7.20000327e-01 ,       23211.10742188
      7.25001037e-01 ,       23246.00976562
      7.30001688e-01 ,       23280.57617188
      7.35002398e-01 ,       23314.81054688
      7.40003049e-01 ,       23348.71679688
      7.45003760e-01 ,       23382.29492188
      7.50004411e-01 ,       23415.54882812
      7.55005121e-01 ,       23448.48046875
      7.60005772e-01 ,       23481.09375000
      7.65006483e-01 ,       23513.39062500
      7.70007133e-01 ,       23545.37109375
      7.75007844e-01 ,       23577.04101562
      7.80000150e-01 ,       23608.34765625
      7.85000861e-01 ,       23639.40039062
      7.90001512e-01 ,       23670.14648438
      7.95002162e-01 ,       23700.58984375
      8.00002873e-01 ,       23730.73046875
      8.05003524e-01 ,       23760.57421875
      8.10004234e-01 ,       23790.12304688
      8.15004885e-01 ,       23819.37500000
      8.20005536e-01 ,       23848.33593750
      8.25006247e-01 ,       23877.00781250
      8.30006897e-01 ,       23905.39257812
      8.35007608e-01 ,       23933.49218750
      8.40008259e-01 ,       23961.31054688
      8.45000565e-01 ,       23988.80078125
      8.50001276e-01 ,       24016.06054688
      8.55001926e-01 ,       24043.04296875
      8.60002577e-01 ,       24069.75390625
      8.65003288e-01 ,       24096.19140625
      8.70003939e-01 ,       24122.35937500
      8.75004649e-01 ,       24148.26171875
      8.80005300e-01 ,       24173.89843750
      8.85005951e-01 ,       24199.27148438
      8.90006661e-01 ,       24224.38281250
      8.95007312e-01 ,       24249.23632812
      9.00008023e-01 ,       24273.83203125
      9.05000329e-01 ,       24298.13281250
      9.10001040e-01 ,       24322.22070312
      9.15001690e-01 ,       24346.05859375
      9.20002341e-01 ,       24369.64648438
      9.25003052e-01 ,       24392.98632812
      9.30003703e-01 ,       24416.08203125
      9.35004413e-01 ,       24438.93359375
      9.40005064e-01 ,       24461.54296875
      9.45005774e-01 ,       24483.91210938
      9.50006485e-01 ,       24506.04492188
      9.55007136e-01 ,       24527.93945312
      9.60007846e-01 ,       24549.59960938
      9.65000153e-01 ,       24570.99218750
      9.70000863e-01 ,       24592.18945312
      9.75001514e-01 ,       24613.15820312
      9.80002224e-01 ,       24633.89648438
      9.85002935e-01 ,       24654.41601562
      9.90003586e-01 ,       24674.70507812
      9.95004296e-01 ,       24694.77148438
      1.00000501e+00 ,       24714.61718750
      1.00500572e+00 ,       24734.24414062
      1.01000643e+00 ,       24753.65234375
      1.01500702e+00 ,       24772.84570312
      1.02000773e+00 ,       24791.82226562
      1.02500010e+00 ,       24810.55664062
      1.03000081e+00 ,       24829.10937500
      1.03500152e+00 ,       24847.45312500
      1.04000223e+00 ,       24865.58789062
      1.04500294e+00 ,       24883.51562500
      1.05000365e+00 ,       24901.23828125
      1.05500436e+00 ,       24918.75781250
      1.06000507e+00 ,       24936.07421875
      1.06500578e+00 ,       24953.18945312
      1.07000649e+00 ,       24970.10351562
      1.07500720e+00 ,       24986.82031250
      1.08000791e+00 ,       25003.33984375
      1.08500028e+00 ,       25019.63867188
      1.09000099e+00 ,       25035.76953125
      1.09500170e+00 ,       25051.70703125
      1.10000241e+00 ,       25067.45507812
      1.10500312e+00 ,       25083.50585938
      1.11000383e+00 ,       25098.42578125
      1.11500454e+00 ,       25113.63281250
      1.12000525e+00 ,       25128.65039062
      1.12500596e+00 ,       25143.61914062
      1.13000667e+00 ,       25158.13281250
      1.13500738e+00 ,       25172.60156250
      1.14000809e+00 ,       25186.88671875
      1.14500058e+00 ,       25200.96875000
      1.15000129e+00 ,       25214.89843750
      1.15500200e+00 ,       25228.64453125
      1.16000271e+00 ,       25242.21679688
      1.16500342e+00 ,       25255.61328125
      1.17000425e+00 ,       25268.83593750
      1.17500496e+00 ,       25281.88476562
      1.18000567e+00 ,       25294.76171875
      1.18500638e+00 ,       25307.46875000
      1.19000721e+00 ,       25320.00585938
      1.19500792e+00 ,       25332.37304688
      1.20000029e+00 ,       25344.55468750
      1.20500100e+00 ,       25356.59179688
      1.21000183e+00 ,       25368.46289062
      1.21500254e+00 ,       25380.16992188
      1.22000325e+00 ,       25391.71289062
      1.22500408e+00 ,       25403.09570312
      1.23000479e+00 ,       25414.31835938
      1.23500550e+00 ,       25425.37890625
      1.24000633e+00 ,       25436.24804688
      1.24500704e+00 ,       25447.03710938
      1.25000787e+00 ,       25457.62890625
      1.25500023e+00 ,       25468.04687500
      1.26000106e+00 ,       25478.32812500
      1.26500177e+00 ,       25488.45703125
      1.27000248e+00 ,       25498.42968750
      1.27500331e+00 ,       25508.25390625
      1.28000402e+00 ,       25517.92382812
      1.28500485e+00 ,       25527.44531250
      1.29000556e+00 ,       25536.81835938
      1.29500639e+00 ,       25546.04296875
      1.30000722e+00 ,       25555.11914062
      1.30500793e+00 ,       25564.05664062
      1.31000042e+00 ,       25572.82421875
      1.31500113e+00 ,       25581.46484375
      1.32000196e+00 ,       25589.96093750
      1.32500267e+00 ,       25598.31445312
      1.33000350e+00 ,       25606.52734375
      1.33500433e+00 ,       25614.59570312
      1.34000504e+00 ,       25622.52539062
      1.34500587e+00 ,       25630.31445312
      1.35000670e+00 ,       25637.96484375
      1.35500741e+00 ,       25645.47656250
      1.36000824e+00 ,       25652.85156250
      1.36500072e+00 ,       25660.07812500
      1.37000155e+00 ,       25667.17968750
      1.37500226e+00 ,       25674.14453125
      1.38000309e+00 ,       25680.97656250
      1.38500392e+00 ,       25687.67382812
      1.39000475e+00 ,       25694.23828125
      1.39500546e+00 ,       25700.66992188
      1.40000629e+00 ,       25706.96875000
      1.40500712e+00 ,       25713.13671875
      1.41000795e+00 ,       25719.17382812
      1.41500044e+00 ,       25725.07226562
      1.42000127e+00 ,       25730.84960938
      1.42500198e+00 ,       25736.50000000
      1.43000281e+00 ,       25742.01953125
      1.43500364e+00 ,       25747.41406250
      1.44000447e+00 ,       25752.67968750
      1.44500530e+00 ,       25757.82812500
      1.45000613e+00 ,       25762.83398438
      1.45500696e+00 ,       25767.72265625
      1.46000779e+00 ,       25772.48632812
      1.46500027e+00 ,       25777.11718750
      1.47000110e+00 ,       25781.63085938
      1.47500193e+00 ,       25786.02343750
      1.48000276e+00 ,       25790.29101562
      1.48500359e+00 ,       25794.43750000
      1.49000442e+00 ,       25798.46093750
      1.49500525e+00 ,       25802.36328125
      1.50000608e+00 ,       25806.14257812
      1.50500691e+00 ,       25809.80273438
      1.51000774e+00 ,       25813.34179688
      1.51500022e+00 ,       25816.75585938
      1.52000105e+00 ,       25820.05468750
      1.52500200e+00 ,       25823.23632812
      1.53000283e+00 ,       25826.29687500
      1.53500366e+00 ,       25829.23828125
      1.54000449e+00 ,       25832.06250000
      1.54500532e+00 ,       25834.76953125
      1.55000615e+00 ,       25837.35742188
      1.55500710e+00 ,       25839.82812500
      1.56000793e+00 ,       25842.18164062
      1.56500041e+00 ,       25844.41406250
      1.57000124e+00 ,       25846.53320312
      1.57500219e+00 ,       25848.53515625
      1.58000302e+00 ,       25850.42187500
      1.58500385e+00 ,       25852.19335938
      1.59000468e+00 ,       25853.84765625
      1.59500563e+00 ,       25855.38476562
      1.60000646e+00 ,       25856.80664062
      1.60500729e+00 ,       25858.11328125
      1.61000824e+00 ,       25859.30468750
      1.61500072e+00 ,       25860.37890625
      1.62000155e+00 ,       25861.33789062
      1.62500250e+00 ,       25862.18359375
      1.63000333e+00 ,       25862.91210938
      1.63500416e+00 ,       25863.52734375
      1.64000511e+00 ,       25864.02539062
      1.64500594e+00 ,       25864.40820312
      1.65000689e+00 ,       25864.67578125
      1.65500772e+00 ,       25864.82812500
      1.66000021e+00 ,       25864.86523438
      1.66500115e+00 ,       25864.78710938
      1.67000198e+00 ,       25864.59179688
      1.67500293e+00 ,       25864.28125000
      1.68000376e+00 ,       25863.85546875
      1.68500471e+00 ,       25863.31250000
      1.69000554e+00 ,       25862.65234375
      1.69500649e+00 ,       25861.87695312
      1.70000732e+00 ,       25860.98437500
      1.70500827e+00 ,       25859.97460938
      1.71000075e+00 ,       25858.84960938
      1.71500170e+00 ,       25857.60351562
      1.72000253e+00 ,       25856.24218750
      1.72500348e+00 ,       25854.76171875
      1.73000431e+00 ,       25853.16210938
      1.73500526e+00 ,       25851.45117188
      1.74000621e+00 ,       25849.60937500
      1.74500704e+00 ,       25847.65234375
      1.75000799e+00 ,       25845.57421875
      1.75500047e+00 ,       25843.37890625
      1.76000142e+00 ,       25841.06054688
      1.76500237e+00 ,       25838.61914062
      1.77000320e+00 ,       25836.05664062
      1.77500415e+00 ,       25833.36914062
      1.78000510e+00 ,       25830.56054688
      1.78500593e+00 ,       25827.62890625
      1.79000688e+00 ,       25824.57226562
      1.79500782e+00 ,       25821.39062500
      1.80000031e+00 ,       25818.08984375
      1.80500126e+00 ,       25814.65625000
      1.81000221e+00 ,       25811.09765625
      1.81500304e+00 ,       25807.41015625
      1.82000399e+00 ,       25803.59570312
      1.82500494e+00 ,       25799.65234375
      1.83000588e+00 ,       25795.58007812
      1.83500671e+00 ,       25791.37890625
      1.84000766e+00 ,       25787.04492188
      1.84500027e+00 ,       25782.70117188
      1.85000122e+00 ,       25778.00000000
      1.85500205e+00 ,       25773.27148438
      1.86000299e+00 ,       25768.40820312
      1.86500394e+00 ,       25763.41210938
      1.87000489e+00 ,       25758.28125000
      1.87500572e+00 ,       25753.01367188
      1.88000667e+00 ,       25747.61132812
      1.88500762e+00 ,       25742.07031250
      1.89000022e+00 ,       25736.40234375
      1.89500117e+00 ,       25730.58593750
      1.90000200e+00 ,       25724.62890625
      1.90500295e+00 ,       25718.53320312
      1.91000390e+00 ,       25712.29687500
      1.91500485e+00 ,       25705.91992188
      1.92000580e+00 ,       25699.40039062
      1.92500675e+00 ,       25692.73632812
      1.93000770e+00 ,       25685.93164062
      1.93500018e+00 ,       25678.99218750
      1.94000113e+00 ,       25671.89648438
      1.94500208e+00 ,       25664.65625000
      1.95000303e+00 ,       25657.27148438
      1.95500398e+00 ,       25649.73828125
      1.96000493e+00 ,       25642.05664062
      1.96500587e+00 ,       25634.22851562
      1.97000682e+00 ,       25626.25390625
      1.97500777e+00 ,       25618.12695312
      1.98000026e+00 ,       25609.86718750
      1.98500121e+00 ,       25601.44140625
      1.99000216e+00 ,       25592.86718750
      1.99500310e+00 ,       25584.14062500
      2.00000405e+00 ,       25575.26367188
      2.00500512e+00 ,       25566.23632812
      2.01000595e+00 ,       25557.05468750
      2.01500702e+00 ,       25547.72070312
      2.02000785e+00 ,       25538.23632812
      2.02500057e+00 ,       25528.61328125
      2.03000140e+00 ,       25518.82031250
      2.03500223e+00 ,       25508.87500000
      2.04000330e+00 ,       25498.77539062
      2.04500437e+00 ,       25488.52148438
      2.05000520e+00 ,       25478.11328125
      2.05500627e+00 ,       25467.55273438
      2.06000710e+00 ,       25456.83593750
      2.06500816e+00 ,       25445.96679688
      2.07000065e+00 ,       25434.95898438
      2.07500172e+00 ,       25423.78125000
      2.08000255e+00 ,       25412.44726562
      2.08500361e+00 ,       25400.96093750
      2.09000444e+00 ,       25389.31835938
      2.09500551e+00 ,       25377.52343750
      2.10000634e+00 ,       25365.57421875
      2.10500741e+00 ,       25353.47265625
      2.11000824e+00 ,       25341.21679688
      2.11500096e+00 ,       25328.82812500
      2.12000203e+00 ,       25316.26757812
      2.12500286e+00 ,       25303.55664062
      2.13000393e+00 ,       25290.69140625
      2.13500476e+00 ,       25277.67578125
      2.14000583e+00 ,       25264.51171875
      2.14500666e+00 ,       25251.19531250
      2.15000153e+00 ,       25237.74023438
      2.15500379e+00 ,       25224.13867188
      2.16000628e+00 ,       25210.37695312
      2.16500044e+00 ,       25196.48828125
      2.17000270e+00 ,       25182.42968750
      2.17500496e+00 ,       25168.22656250
      2.18000746e+00 ,       25153.87695312
      2.18500161e+00 ,       25139.40625000
      2.19000387e+00 ,       25124.76953125
      2.19500613e+00 ,       25109.98828125
      2.20000029e+00 ,       25095.09179688
      2.20500278e+00 ,       25080.02734375
      2.21000504e+00 ,       25064.82421875
      2.21500731e+00 ,       25049.48046875
      2.22000146e+00 ,       25034.02343750
      2.22500396e+00 ,       25018.40429688
      2.23000622e+00 ,       25002.64843750
      2.23500037e+00 ,       24986.78515625
