        Displacement ,                Force
      0.00000000e+00 ,           0.00000000
      1.10890760e-05 ,           5.71928549
      1.55353337e-04 ,          79.94323730
      6.84540719e-04 ,         352.07217407
      1.87091634e-03 ,         961.92199707
      3.90837714e-03 ,        2008.75122070
      6.86998433e-03 ,        3529.36596680
      1.06907450e-02 ,        5489.38232422
      1.51598128e-02 ,        7779.56298828
      2.00132821e-02 ,        8922.84667969
      2.50079781e-02 ,        8993.13867188
      3.00053321e-02 ,        9052.85351562
      3.50026861e-02 ,        9111.30761719
      4.00000438e-02 ,        9169.02441406
      4.50057685e-02 ,        9226.07128906
      5.00031225e-02 ,        9282.30175781
      5.50004803e-02 ,        9338.05273438
      6.00062050e-02 ,        9393.44824219
      6.50035590e-02 ,        9448.30078125
      7.00009167e-02 ,        9502.71386719
      7.50066414e-02 ,        9556.79785156
      8.00039992e-02 ,        9610.28125000
      8.50013494e-02 ,        9663.27148438
      9.00070742e-02 ,        9715.96093750
      9.50044319e-02 ,        9768.17089844
      1.00001790e-01 ,        9819.89746094
      1.05007514e-01 ,        9871.18066406
      1.10004872e-01 ,        9921.98437500
      1.15002222e-01 ,        9972.41796875
      1.20007947e-01 ,       10022.56640625
      1.25005305e-01 ,       10072.26660156
      1.30002663e-01 ,       10121.60546875
      1.35000020e-01 ,       10170.57714844
      1.40005738e-01 ,       10219.20410156
      1.45003095e-01 ,       10267.29980469
      1.50000453e-01 ,       10315.02832031
      1.55006170e-01 ,       10362.48828125
      1.60003528e-01 ,       10409.52636719
      1.65000886e-01 ,       10456.21386719
      1.70006618e-01 ,       10502.62792969
      1.75003976e-01 ,       10548.62695312
      1.80001318e-01 ,       10594.29492188
      1.85007051e-01 ,       10639.71191406
      1.90004408e-01 ,       10684.72656250
      1.95001766e-01 ,       10729.41796875
      2.00007483e-01 ,       10773.85449219
      2.05004841e-01 ,       10817.88281250
      2.10002199e-01 ,       10861.58789062
      2.15007916e-01 ,       10905.04687500
      2.20005274e-01 ,       10948.10058594
      2.25002632e-01 ,       10990.78710938
      2.30008364e-01 ,       11033.20312500
      2.35005707e-01 ,       11075.24023438
      2.40003064e-01 ,       11116.97460938
      2.45000422e-01 ,       11158.40917969
      2.50006139e-01 ,       11199.61328125
      2.55003512e-01 ,       11240.45214844
      2.60000855e-01 ,       11280.99707031
      2.65006572e-01 ,       11321.31640625
      2.70003945e-01 ,       11361.27929688
      2.75001287e-01 ,       11400.95410156
      2.80007035e-01 ,       11440.40820312
      2.85004377e-01 ,       11479.51269531
      2.90001720e-01 ,       11518.33593750
      2.95007467e-01 ,       11556.94238281
      3.00004810e-01 ,       11595.20312500
      3.05002183e-01 ,       11633.18261719
      3.10007900e-01 ,       11670.94921875
      3.15005243e-01 ,       11708.37890625
      3.20002615e-01 ,       11745.53808594
      3.25008333e-01 ,       11782.49121094
      3.30005676e-01 ,       11819.11718750
      3.35003048e-01 ,       11855.47851562
      3.40000391e-01 ,       11891.57812500
      3.45006108e-01 ,       11927.47851562
      3.50003481e-01 ,       11963.05957031
      3.55000824e-01 ,       11998.38476562
      3.60006571e-01 ,       12033.51367188
      3.65003914e-01 ,       12068.33007812
      3.70001256e-01 ,       12102.89648438
      3.75007004e-01 ,       12137.27050781
      3.80004346e-01 ,       12171.33984375
      3.85001719e-01 ,       12205.16308594
      3.90007436e-01 ,       12238.79785156
      3.95004779e-01 ,       12272.13378906
      4.00002152e-01 ,       12305.22851562
      4.05007869e-01 ,       12338.13964844
      4.10005212e-01 ,       12370.75781250
      4.15002584e-01 ,       12403.13964844
      4.20008302e-01 ,       12435.34179688
      4.25005645e-01 ,       12467.25585938
      4.30003017e-01 ,       12498.93945312
      4.35000360e-01 ,       12530.39453125
      4.40006107e-01 ,       12561.67285156
      4.45003450e-01 ,       12592.67187500
      4.50000793e-01 ,       12623.44628906
      4.55006540e-01 ,       12654.04882812
      4.60003883e-01 ,       12684.37792969
      4.65001255e-01 ,       12714.48632812
      4.70006973e-01 ,       12744.42578125
      4.75004315e-01 ,       12774.09765625
      4.80001688e-01 ,       12803.55371094
      4.85007405e-01 ,       12832.84375000
      4.90004748e-01 ,       12861.87207031
      4.95002121e-01 ,       12890.68945312
      5.00007868e-01 ,       12919.34277344
      5.05005181e-01 ,       12947.74023438
      5.10002553e-01 ,       12975.93066406
      5.15008271e-01 ,       13003.96093750
      5.20005643e-01 ,       13031.73925781
      5.25003016e-01 ,       13059.31445312
      5.30000329e-01 ,       13086.68652344
      5.35006046e-01 ,       13113.90332031
      5.40003419e-01 ,       13140.87402344
      5.45000792e-01 ,       13167.64550781
      5.50006509e-01 ,       13194.26464844
      5.55003881e-01 ,       13220.64453125
      5.60001194e-01 ,       13246.82910156
      5.65006912e-01 ,       13272.86523438
      5.70004284e-01 ,       13298.66601562
      5.75001657e-01 ,       13324.27734375
      5.80007374e-01 ,       13349.74121094
      5.85004747e-01 ,       13374.97558594
      5.90002060e-01 ,       13400.02343750
      5.95007837e-01 ,       13424.92773438
      6.00005150e-01 ,       13449.60546875
      6.05002522e-01 ,       13474.10156250
      6.10008240e-01 ,       13498.45507812
      6.15005612e-01 ,       13522.58789062
      6.20002985e-01 ,       13546.54101562
      6.25000298e-01 ,       13570.31445312
      6.30006015e-01 ,       13593.94921875
      6.35003388e-01 ,       13617.36425781
      6.40000761e-01 ,       13640.60058594
      6.45006478e-01 ,       13663.69628906
      6.50003850e-01 ,       13686.57519531
      6.55001163e-01 ,       13709.27636719
      6.60006940e-01 ,       13731.83886719
      6.65004253e-01 ,       13754.18750000
      6.70001626e-01 ,       13776.36230469
      6.75007343e-01 ,       13798.40039062
      6.80004716e-01 ,       13820.23144531
      6.85002089e-01 ,       13841.89453125
      6.90007806e-01 ,       13863.42578125
      6.95005119e-01 ,       13884.75585938
      7.00002491e-01 ,       13905.92285156
      7.05008209e-01 ,       13926.96289062
      7.10005581e-01 ,       13947.80664062
      7.15002954e-01 ,       13968.49218750
      7.20000267e-01 ,       13989.01953125
      7.25005984e-01 ,       14009.42480469
      7.30003357e-01 ,       14029.64160156
      7.35000730e-01 ,       14049.70312500
      7.40006447e-01 ,       14069.64648438
      7.45003819e-01 ,       14089.40332031
      7.50001132e-01 ,       14109.01074219
      7.55006909e-01 ,       14128.50097656
      7.60004222e-01 ,       14147.80957031
      7.65001595e-01 ,       14166.97070312
      7.70007312e-01 ,       14186.01660156
      7.75004685e-01 ,       14204.88574219
      7.80002058e-01 ,       14223.60937500
      7.85007775e-01 ,       14242.22070312
      7.90005088e-01 ,       14260.65722656
      7.95002460e-01 ,       14278.95214844
      8.00008178e-01 ,       14297.13671875
      8.05005550e-01 ,       14315.15039062
      8.10002923e-01 ,       14333.02539062
      8.15000236e-01 ,       14350.76074219
      8.20006013e-01 ,       14368.38867188
      8.25003326e-01 ,       14385.84960938
      8.30000699e-01 ,       14403.17578125
      8.35006416e-01 ,       14420.39453125
      8.40003788e-01 ,       14437.45117188
      8.45001161e-01 ,       14454.37304688
      8.50006878e-01 ,       14471.19140625
      8.55004191e-01 ,       14487.84960938
      8.60001564e-01 ,       14504.37695312
      8.65007281e-01 ,       14520.80175781
      8.70004654e-01 ,       14537.06933594
      8.75002027e-01 ,       14553.20800781
      8.80007744e-01 ,       14569.24609375
      8.85005057e-01 ,       14585.13085938
      8.90002429e-01 ,       14600.88867188
      8.95008147e-01 ,       14616.54687500
      9.00005519e-01 ,       14632.05468750
      9.05002892e-01 ,       14647.43750000
      9.10000205e-01 ,       14662.69824219
      9.15005982e-01 ,       14677.86132812
      9.20003295e-01 ,       14692.87695312
      9.25000668e-01 ,       14707.77246094
      9.30006385e-01 ,       14722.57128906
      9.35003757e-01 ,       14737.22656250
      9.40001130e-01 ,       14751.76269531
      9.45006847e-01 ,       14766.20410156
      9.50004160e-01 ,       14780.50488281
      9.55001533e-01 ,       14794.68847656
      9.60007250e-01 ,       14808.77929688
      9.65004623e-01 ,       14822.73046875
      9.70001996e-01 ,       14836.56738281
      9.75007713e-01 ,       14850.31347656
      9.80005085e-01 ,       14863.92187500
      9.85002398e-01 ,       14877.41796875
      9.90008116e-01 ,       14890.82421875
      9.95005488e-01 ,       14904.09667969
      1.00000286e+00 ,       14917.25683594
      1.00500023e+00 ,       14930.30761719
      1.01000595e+00 ,       14943.26953125
      1.01500332e+00 ,       14956.09960938
      1.02000070e+00 ,       14968.82128906
      1.02500641e+00 ,       14981.45507812
      1.03000367e+00 ,       14993.95996094
      1.03500104e+00 ,       15006.35644531
      1.04000676e+00 ,       15018.66699219
      1.04500413e+00 ,       15030.84960938
      1.05000150e+00 ,       15042.92578125
      1.05500722e+00 ,       15054.91699219
      1.06000459e+00 ,       15066.78125000
      1.06500196e+00 ,       15078.54101562
      1.07000768e+00 ,       15090.21582031
      1.07500505e+00 ,       15101.76660156
      1.08000243e+00 ,       15113.21484375
      1.08500814e+00 ,       15124.57812500
      1.09000552e+00 ,       15135.82031250
      1.09500277e+00 ,       15146.96191406
      1.10000014e+00 ,       15158.00292969
      1.10500586e+00 ,       15168.96093750
      1.11000323e+00 ,       15179.80273438
      1.11500061e+00 ,       15190.54492188
      1.12000632e+00 ,       15201.20703125
      1.12500370e+00 ,       15211.75390625
      1.13000107e+00 ,       15222.20410156
      1.13500679e+00 ,       15232.57519531
      1.14000416e+00 ,       15242.83398438
      1.14500153e+00 ,       15252.99804688
      1.15000725e+00 ,       15263.08398438
      1.15500462e+00 ,       15273.05957031
      1.16000187e+00 ,       15282.94238281
      1.16500759e+00 ,       15292.75000000
      1.17000496e+00 ,       15302.44824219
      1.17500234e+00 ,       15312.05566406
      1.18000805e+00 ,       15321.58789062
      1.18500543e+00 ,       15331.01464844
      1.19000280e+00 ,       15340.35156250
      1.19500017e+00 ,       15349.59863281
      1.20000589e+00 ,       15358.77343750
      1.20500326e+00 ,       15367.84472656
      1.21000063e+00 ,       15376.82812500
      1.21500635e+00 ,       15385.74023438
      1.22000372e+00 ,       15394.55078125
      1.22500098e+00 ,       15403.27441406
      1.23000669e+00 ,       15411.92871094
      1.23500407e+00 ,       15420.48242188
      1.24000144e+00 ,       15428.95214844
      1.24500716e+00 ,       15437.35156250
      1.25000453e+00 ,       15445.65332031
      1.25500190e+00 ,       15453.87304688
      1.26000762e+00 ,       15462.02832031
      1.26500499e+00 ,       15470.08105469
      1.27000237e+00 ,       15478.05371094
      1.27500808e+00 ,       15485.95898438
      1.28000546e+00 ,       15493.76953125
      1.28500271e+00 ,       15501.50097656
      1.29000008e+00 ,       15509.15234375
      1.29500580e+00 ,       15516.73632812
      1.30000317e+00 ,       15524.22949219
      1.30500054e+00 ,       15531.64355469
      1.31000626e+00 ,       15538.99218750
      1.31500363e+00 ,       15546.25097656
      1.32000101e+00 ,       15553.43164062
      1.32500672e+00 ,       15560.54882812
      1.33000410e+00 ,       15567.57617188
      1.33500147e+00 ,       15574.52832031
      1.34000719e+00 ,       15581.41699219
      1.34500456e+00 ,       15588.21875000
      1.35000181e+00 ,       15594.94531250
      1.35500765e+00 ,       15601.60839844
      1.36000490e+00 ,       15608.18652344
      1.36500227e+00 ,       15614.69140625
      1.37000799e+00 ,       15621.13378906
      1.37500536e+00 ,       15627.49218750
      1.38000274e+00 ,       15633.77832031
      1.38500011e+00 ,       15639.99316406
      1.39000583e+00 ,       15646.14550781
      1.39500320e+00 ,       15652.21679688
      1.40000057e+00 ,       15658.21679688
      1.40500629e+00 ,       15664.15722656
      1.41000366e+00 ,       15670.01660156
      1.41500092e+00 ,       15675.80566406
      1.42000675e+00 ,       15681.53515625
      1.42500401e+00 ,       15687.18652344
      1.43000138e+00 ,       15692.76855469
      1.43500710e+00 ,       15698.29101562
      1.44000447e+00 ,       15703.73632812
      1.44500184e+00 ,       15709.11425781
      1.45000756e+00 ,       15714.43359375
      1.45500493e+00 ,       15719.67675781
      1.46000230e+00 ,       15724.85253906
      1.46500802e+00 ,       15729.97070312
      1.47000539e+00 ,       15735.01464844
      1.47500277e+00 ,       15739.99218750
      1.48000002e+00 ,       15744.90527344
      1.48500574e+00 ,       15749.75976562
      1.49000311e+00 ,       15754.54296875
      1.49500048e+00 ,       15759.25976562
      1.50000620e+00 ,       15763.92187500
      1.50500357e+00 ,       15768.51074219
      1.51000094e+00 ,       15773.03710938
      1.51500666e+00 ,       15777.50683594
      1.52000403e+00 ,       15781.90625000
      1.52500141e+00 ,       15786.24316406
      1.53000712e+00 ,       15790.52441406
      1.53500450e+00 ,       15794.73632812
      1.54000187e+00 ,       15798.88574219
      1.54500759e+00 ,       15802.98144531
      1.55000484e+00 ,       15807.00781250
      1.55500221e+00 ,       15810.97363281
      1.56000793e+00 ,       15814.88574219
      1.56500530e+00 ,       15818.73046875
      1.57000268e+00 ,       15822.51464844
      1.57500839e+00 ,       15826.24511719
      1.58000576e+00 ,       15829.90917969
      1.58500314e+00 ,       15833.51464844
      1.59000051e+00 ,       15837.05957031
      1.59500623e+00 ,       15840.55273438
      1.60000360e+00 ,       15843.98046875
      1.60500085e+00 ,       15847.35058594
      1.61000669e+00 ,       15850.66699219
      1.61500394e+00 ,       15853.91992188
      1.62000132e+00 ,       15857.11523438
      1.62500703e+00 ,       15860.25878906
      1.63000441e+00 ,       15863.33886719
      1.63500178e+00 ,       15866.36230469
      1.64000750e+00 ,       15869.33398438
      1.64500487e+00 ,       15872.24414062
      1.65000224e+00 ,       15875.09765625
      1.65500796e+00 ,       15877.89941406
      1.66000533e+00 ,       15880.64062500
      1.66500270e+00 ,       15883.32617188
      1.67000842e+00 ,       15885.96093750
      1.67500579e+00 ,       15888.53515625
      1.68000305e+00 ,       15891.05468750
      1.68500042e+00 ,       15893.52148438
      1.69000614e+00 ,       15895.93554688
      1.69500351e+00 ,       15898.29101562
      1.70000088e+00 ,       15900.59179688
      1.70500660e+00 ,       15902.84179688
      1.71000397e+00 ,       15905.03417969
      1.71500134e+00 ,       15907.17285156
      1.72000706e+00 ,       15909.26074219
      1.72500443e+00 ,       15911.29296875
      1.73000181e+00 ,       15913.27050781
      1.73500752e+00 ,       15915.19921875
      1.74000490e+00 ,       15917.07031250
      1.74500215e+00 ,       15918.88964844
      1.75000787e+00 ,       15920.65917969
      1.75500524e+00 ,       15922.37304688
      1.76000261e+00 ,       15924.03417969
      1.76500833e+00 ,       15925.64648438
      1.77000570e+00 ,       15927.20410156
      1.77500308e+00 ,       15928.70898438
      1.78000045e+00 ,       15930.16308594
      1.78500617e+00 ,       15931.56640625
      1.79000354e+00 ,       15932.91699219
      1.79500091e+00 ,       15934.21582031
      1.80000663e+00 ,       15935.46582031
      1.80500388e+00 ,       15936.66210938
      1.81000125e+00 ,       15937.80761719
      1.81500697e+00 ,       15938.90429688
      1.82000434e+00 ,       15939.94726562
      1.82500172e+00 ,       15940.94042969
      1.83000743e+00 ,       15941.88476562
      1.83500481e+00 ,       15942.77636719
      1.84000218e+00 ,       15943.61816406
      1.84500790e+00 ,       15944.41015625
      1.85000527e+00 ,       15945.15136719
      1.85500264e+00 ,       15945.84179688
      1.86000836e+00 ,       15946.48339844
      1.86500573e+00 ,       15947.07421875
      1.87000299e+00 ,       15947.61425781
      1.87500036e+00 ,       15948.10546875
      1.88000607e+00 ,       15948.54687500
      1.88500345e+00 ,       15948.93847656
      1.89000082e+00 ,       15949.28125000
      1.89500654e+00 ,       15949.57714844
      1.90000391e+00 ,       15949.81933594
      1.90500128e+00 ,       15950.01269531
      1.91000700e+00 ,       15950.15625000
      1.91500437e+00 ,       15950.25097656
      1.92000175e+00 ,       15950.29492188
      1.92500746e+00 ,       15950.29003906
      1.93000484e+00 ,       15950.23632812
      1.93500209e+00 ,       15950.13281250
      1.94000781e+00 ,       15949.97949219
      1.94500518e+00 ,       15949.77734375
      1.95000255e+00 ,       15949.52636719
      1.95500827e+00 ,       15949.22460938
      1.96000564e+00 ,       15948.87402344
      1.96500301e+00 ,       15948.47460938
      1.97000039e+00 ,       15948.02636719
      1.97500610e+00 ,       15947.52734375
      1.98000348e+00 ,       15946.97949219
      1.98500085e+00 ,       15946.38183594
      1.99000657e+00 ,       15945.73437500
      1.99500394e+00 ,       15945.03808594
      2.00000119e+00 ,       15944.29296875
      2.00500703e+00 ,       15943.49609375
      2.01000428e+00 ,       15942.65136719
      2.01500177e+00 ,       15941.75683594
      2.02000737e+00 ,       15940.81152344
      2.02500486e+00 ,       15939.81738281
      2.03000212e+00 ,       15938.77343750
      2.03500795e+00 ,       15937.67773438
      2.04000521e+00 ,       15936.53320312
      2.04500246e+00 ,       15935.33886719
      2.05000830e+00 ,       15934.09277344
      2.05500555e+00 ,       15932.79785156
      2.06000304e+00 ,       15931.45312500
      2.06500030e+00 ,       15930.05761719
      2.07000613e+00 ,       15928.60839844
      2.07500339e+00 ,       15927.11132812
      2.08000088e+00 ,       15925.56347656
      2.08500648e+00 ,       15923.96191406
      2.09000397e+00 ,       15922.31250000
      2.09500122e+00 ,       15920.61132812
      2.10000682e+00 ,       15918.85546875
      2.10500431e+00 ,       15917.05175781
      2.11000156e+00 ,       15915.19531250
      2.11500740e+00 ,       15913.28515625
      2.12000465e+00 ,       15911.32519531
      2.12500215e+00 ,       15909.31347656
      2.13000774e+00 ,       15907.24609375
      2.13500524e+00 ,       15905.12988281
      2.14000249e+00 ,       15902.96093750
      2.14500833e+00 ,       15900.73535156
      2.15000558e+00 ,       15898.45996094
      2.15500307e+00 ,       15896.13281250
      2.16000032e+00 ,       15893.75097656
      2.16500592e+00 ,       15891.31250000
      2.17000341e+00 ,       15888.82421875
      2.17500067e+00 ,       15886.28222656
      2.18000650e+00 ,       15883.68164062
      2.18500376e+00 ,       15881.03125000
      2.19000125e+00 ,       15878.32617188
      2.19500685e+00 ,       15875.56152344
      2.20000434e+00 ,       15872.74707031
      2.20500159e+00 ,       15869.87792969
      2.21000743e+00 ,       15866.94824219
      2.21500468e+00 ,       15863.96777344
      2.22000217e+00 ,       15860.93261719
      2.22500777e+00 ,       15857.83593750
      2.23000503e+00 ,       15854.68847656
      2.23500252e+00 ,       15851.48437500
