        Displacement ,                Force
      0.00000000e+00 ,           0.00000000
      1.10890760e-05 ,           6.78531075
      1.55353337e-04 ,          94.88194275
      6.84540719e-04 ,         417.90145874
      1.87091611e-03 ,        1141.83642578
      3.90837528e-03 ,        2384.55834961
      6.86997641e-03 ,        4189.82519531
      1.06907208e-02 ,        6516.89599609
      1.51597578e-02 ,        9236.15820312
      2.00131666e-02 ,       12185.50585938
      2.50077788e-02 ,       13351.56640625
      3.00050508e-02 ,       13528.34277344
      3.50023247e-02 ,       13669.34472656
      4.00006771e-02 ,       13801.41210938
      4.50046360e-02 ,       13926.17773438
      5.00003695e-02 ,       14047.06835938
      5.50044626e-02 ,       14165.33105469
      6.00080788e-02 ,       14282.57812500
      6.50080964e-02 ,       14398.16015625
      7.00081140e-02 ,       14511.71289062
      7.50081390e-02 ,       14623.83300781
      8.00081715e-02 ,       14734.95703125
      8.50082040e-02 ,       14845.10937500
      9.00082439e-02 ,       14954.31738281
      9.50082839e-02 ,       15062.59960938
      1.00008339e-01 ,       15169.93457031
      1.05000064e-01 ,       15276.00097656
      1.10000126e-01 ,       15381.21972656
      1.15000203e-01 ,       15485.53808594
      1.20000295e-01 ,       15588.97656250
      1.25000402e-01 ,       15691.54589844
      1.30000517e-01 ,       15793.23144531
      1.35000646e-01 ,       15893.75292969
      1.40000790e-01 ,       15993.18457031
      1.45000950e-01 ,       16091.75585938
      1.50001124e-01 ,       16189.48242188
      1.55001312e-01 ,       16286.36914062
      1.60001531e-01 ,       16382.42871094
      1.65001765e-01 ,       16477.67773438
      1.70002013e-01 ,       16572.12304688
      1.75003171e-01 ,       16665.79101562
      1.80000439e-01 ,       16758.59375000
      1.85006082e-01 ,       16850.76367188
      1.90003350e-01 ,       16942.00585938
      1.95000634e-01 ,       17032.48046875
      2.00004250e-01 ,       17122.35156250
      2.05003068e-01 ,       17211.33789062
      2.10001886e-01 ,       17299.56640625
      2.15000719e-01 ,       17387.04687500
      2.20007807e-01 ,       17473.93359375
      2.25006625e-01 ,       17559.94140625
      2.30005458e-01 ,       17645.21875000
      2.35004276e-01 ,       17729.77148438
      2.40003109e-01 ,       17813.59960938
      2.45001942e-01 ,       17896.70898438
      2.50000775e-01 ,       17979.10546875
      2.55007893e-01 ,       18060.92773438
      2.60006726e-01 ,       18141.89453125
      2.65005559e-01 ,       18222.14062500
      2.70004392e-01 ,       18301.68359375
      2.75003254e-01 ,       18380.53710938
      2.80002087e-01 ,       18458.71289062
      2.85000920e-01 ,       18536.21289062
      2.90008008e-01 ,       18613.16992188
      2.95006812e-01 ,       18689.33398438
      3.00005645e-01 ,       18764.84179688
      3.05004448e-01 ,       18839.69726562
      3.10003251e-01 ,       18913.90429688
      3.15002054e-01 ,       18987.46875000
      3.20000857e-01 ,       19060.39648438
      3.25007915e-01 ,       19132.80859375
      3.30006719e-01 ,       19204.47460938
      3.35005492e-01 ,       19275.51953125
      3.40004295e-01 ,       19345.94531250
      3.45003068e-01 ,       19415.75976562
      3.50001842e-01 ,       19484.96484375
      3.55000615e-01 ,       19553.56640625
      3.60007644e-01 ,       19621.67968750
      3.65006417e-01 ,       19689.08789062
      3.70005161e-01 ,       19755.90625000
      3.75003904e-01 ,       19822.13867188
      3.80002677e-01 ,       19887.78906250
      3.85001421e-01 ,       19952.85937500
      3.90000165e-01 ,       20017.35742188
      3.95007163e-01 ,       20081.39062500
      4.00005907e-01 ,       20144.75585938
      4.05004621e-01 ,       20207.56250000
      4.10003334e-01 ,       20269.81640625
      4.15002078e-01 ,       20331.52148438
      4.20000792e-01 ,       20392.68164062
      4.25007761e-01 ,       20453.40039062
      4.30006474e-01 ,       20513.48437500
      4.35005188e-01 ,       20573.03515625
      4.40003902e-01 ,       20632.06054688
      4.45002586e-01 ,       20690.56054688
      4.50001299e-01 ,       20748.54296875
      4.55008239e-01 ,       20806.10351562
      4.60006922e-01 ,       20863.05859375
      4.65005606e-01 ,       20919.50781250
      4.70004290e-01 ,       20975.45312500
      4.75002974e-01 ,       21030.89843750
      4.80001658e-01 ,       21085.84570312
      4.85000342e-01 ,       21140.31250000
      4.90007281e-01 ,       21194.37500000
      4.95005935e-01 ,       21247.86328125
      5.00004590e-01 ,       21300.87304688
      5.05003273e-01 ,       21353.40625000
      5.10001898e-01 ,       21405.46679688
      5.15000582e-01 ,       21457.06054688
      5.20007491e-01 ,       21508.27148438
      5.25006115e-01 ,       21558.93750000
      5.30004799e-01 ,       21609.14648438
      5.35003424e-01 ,       21658.90039062
      5.40002048e-01 ,       21708.20507812
      5.45000672e-01 ,       21757.06250000
      5.50007582e-01 ,       21805.55664062
      5.55006206e-01 ,       21853.53125000
      5.60004830e-01 ,       21901.06835938
      5.65003455e-01 ,       21948.17382812
      5.70002079e-01 ,       21994.84960938
      5.75000703e-01 ,       22041.09765625
      5.80007553e-01 ,       22087.00000000
      5.85006177e-01 ,       22132.40625000
      5.90004742e-01 ,       22177.39648438
      5.95003366e-01 ,       22221.97265625
      6.00001931e-01 ,       22266.13867188
      6.05000556e-01 ,       22309.89843750
      6.10007405e-01 ,       22353.32617188
      6.15005970e-01 ,       22396.27929688
      6.20004535e-01 ,       22438.83593750
      6.25003099e-01 ,       22480.99609375
      6.30001724e-01 ,       22522.76562500
      6.35000288e-01 ,       22564.14648438
      6.40007079e-01 ,       22605.20898438
      6.45005643e-01 ,       22645.82031250
      6.50004208e-01 ,       22686.05078125
      6.55002773e-01 ,       22725.90625000
      6.60001338e-01 ,       22765.38671875
      6.65008128e-01 ,       22804.56250000
      6.70006692e-01 ,       22843.30468750
      6.75005257e-01 ,       22881.68164062
      6.80003822e-01 ,       22919.69726562
      6.85002327e-01 ,       22957.35546875
      6.90000892e-01 ,       22994.65625000
      6.95007682e-01 ,       23031.66406250
      7.00006247e-01 ,       23068.25976562
      7.05004752e-01 ,       23104.50976562
      7.10003316e-01 ,       23140.41210938
      7.15001881e-01 ,       23175.97460938
      7.20000386e-01 ,       23211.19531250
      7.25007176e-01 ,       23246.13867188
      7.30005741e-01 ,       23280.68945312
      7.35004246e-01 ,       23314.90820312
      7.40002811e-01 ,       23348.79687500
      7.45001316e-01 ,       23382.35937500
      7.50008106e-01 ,       23415.65429688
      7.55006671e-01 ,       23448.57031250
      7.60005176e-01 ,       23481.16796875
      7.65003681e-01 ,       23513.44921875
      7.70002246e-01 ,       23545.41406250
      7.75000751e-01 ,       23577.06835938
      7.80007541e-01 ,       23608.46484375
      7.85006046e-01 ,       23639.50000000
      7.90004611e-01 ,       23670.23046875
      7.95003116e-01 ,       23700.65820312
      8.00001621e-01 ,       23730.78515625
      8.05000186e-01 ,       23760.61328125
      8.10006976e-01 ,       23790.19531250
      8.15005481e-01 ,       23819.43164062
      8.20003986e-01 ,       23848.37890625
      8.25002551e-01 ,       23877.03710938
      8.30001056e-01 ,       23905.40625000
      8.35007846e-01 ,       23933.53906250
      8.40006351e-01 ,       23961.34179688
      8.45004916e-01 ,       23988.86523438
      8.50003421e-01 ,       24016.10937500
      8.55001926e-01 ,       24043.08007812
      8.60000432e-01 ,       24069.77539062
      8.65007222e-01 ,       24096.24414062
      8.70005786e-01 ,       24122.40039062
      8.75004292e-01 ,       24148.28906250
      8.80002797e-01 ,       24173.91210938
      8.85001361e-01 ,       24199.27343750
      8.90008152e-01 ,       24224.41601562
      8.95006657e-01 ,       24249.25585938
      9.00005162e-01 ,       24273.83984375
      9.05003726e-01 ,       24298.16992188
      9.10002232e-01 ,       24322.24609375
      9.15000796e-01 ,       24346.07226562
      9.20007586e-01 ,       24369.68750000
      9.25006092e-01 ,       24393.01562500
      9.30004597e-01 ,       24416.09960938
      9.35003161e-01 ,       24438.93945312
      9.40001667e-01 ,       24461.53906250
      9.45000231e-01 ,       24483.89843750
      9.50007021e-01 ,       24506.05664062
      9.55005527e-01 ,       24527.93945312
      9.60004091e-01 ,       24549.58984375
      9.65002596e-01 ,       24571.00781250
      9.70001161e-01 ,       24592.19531250
      9.75007951e-01 ,       24613.18750000
      9.80006516e-01 ,       24633.91601562
      9.85005021e-01 ,       24654.41992188
      9.90003586e-01 ,       24674.70117188
      9.95002151e-01 ,       24694.75781250
      1.00000072e+00 ,       24714.59375000
      1.00500751e+00 ,       24734.24414062
      1.01000607e+00 ,       24753.64257812
      1.01500452e+00 ,       24772.82617188
      1.02000308e+00 ,       24791.79492188
      1.02500165e+00 ,       24810.55078125
      1.03000021e+00 ,       24829.09375000
      1.03500700e+00 ,       24847.45898438
      1.04000556e+00 ,       24865.58593750
      1.04500413e+00 ,       24883.50390625
      1.05000269e+00 ,       24901.21875000
      1.05500126e+00 ,       24918.72851562
      1.06000805e+00 ,       24936.06445312
      1.06500661e+00 ,       24953.16992188
      1.07000518e+00 ,       24970.07812500
      1.07500374e+00 ,       24986.78710938
      1.08000231e+00 ,       25003.29882812
      1.08500087e+00 ,       25019.64843750
      1.09000766e+00 ,       25035.83007812
      1.09500623e+00 ,       25051.78710938
      1.10000479e+00 ,       25067.55273438
      1.10500336e+00 ,       25083.12695312
      1.11000192e+00 ,       25098.51367188
      1.11500049e+00 ,       25113.69140625
      1.12000740e+00 ,       25128.74804688
      1.12500596e+00 ,       25143.57812500
      1.13000453e+00 ,       25158.22265625
      1.13500309e+00 ,       25172.68359375
      1.14000165e+00 ,       25186.96289062
      1.14500022e+00 ,       25201.06054688
      1.15000713e+00 ,       25215.00390625
      1.15500569e+00 ,       25228.74609375
      1.16000426e+00 ,       25242.31250000
      1.16500282e+00 ,       25255.70312500
      1.17000139e+00 ,       25268.91992188
      1.17500830e+00 ,       25281.98632812
      1.18000686e+00 ,       25294.85742188
      1.18500543e+00 ,       25307.56054688
      1.19000399e+00 ,       25320.09375000
      1.19500268e+00 ,       25332.45898438
      1.20000124e+00 ,       25344.65625000
      1.20500815e+00 ,       25356.70703125
      1.21000671e+00 ,       25368.57421875
      1.21500528e+00 ,       25380.28125000
      1.22000384e+00 ,       25391.81445312
      1.22500253e+00 ,       25403.20703125
      1.23000109e+00 ,       25414.42578125
      1.23500800e+00 ,       25425.50390625
      1.24000657e+00 ,       25436.40429688
      1.24500513e+00 ,       25447.14843750
      1.25000381e+00 ,       25457.73437500
      1.25500238e+00 ,       25468.16601562
      1.26000106e+00 ,       25478.44335938
      1.26500785e+00 ,       25488.58203125
      1.27000654e+00 ,       25498.55273438
      1.27500510e+00 ,       25508.37109375
      1.28000379e+00 ,       25518.03906250
      1.28500235e+00 ,       25527.55664062
      1.29000103e+00 ,       25536.92578125
      1.29500794e+00 ,       25546.16015625
      1.30000651e+00 ,       25555.23437500
      1.30500519e+00 ,       25564.16210938
      1.31000376e+00 ,       25572.94335938
      1.31500244e+00 ,       25581.58007812
      1.32000101e+00 ,       25590.07226562
      1.32500792e+00 ,       25598.43554688
      1.33000660e+00 ,       25606.64453125
      1.33500516e+00 ,       25614.71093750
      1.34000385e+00 ,       25622.63671875
      1.34500253e+00 ,       25630.42187500
      1.35000110e+00 ,       25638.06835938
      1.35500801e+00 ,       25645.58984375
      1.36000669e+00 ,       25652.96093750
      1.36500537e+00 ,       25660.19531250
      1.37000394e+00 ,       25667.29492188
      1.37500262e+00 ,       25674.25781250
      1.38000131e+00 ,       25681.08593750
      1.38500822e+00 ,       25687.79101562
      1.39000678e+00 ,       25694.35156250
      1.39500546e+00 ,       25700.78125000
      1.40000415e+00 ,       25707.07812500
      1.40500283e+00 ,       25713.24218750
      1.41000152e+00 ,       25719.27929688
      1.41500008e+00 ,       25725.18359375
      1.42000699e+00 ,       25730.96875000
      1.42500567e+00 ,       25736.61523438
      1.43000436e+00 ,       25742.13281250
      1.43500304e+00 ,       25747.52343750
      1.44000173e+00 ,       25752.78710938
      1.44500041e+00 ,       25757.92382812
      1.45000732e+00 ,       25762.94335938
      1.45500600e+00 ,       25767.82812500
      1.46000469e+00 ,       25772.58984375
      1.46500337e+00 ,       25777.22460938
      1.47000206e+00 ,       25781.73828125
      1.47500074e+00 ,       25786.12695312
      1.48000765e+00 ,       25790.39843750
      1.48500633e+00 ,       25794.54101562
      1.49000502e+00 ,       25798.56250000
      1.49500370e+00 ,       25802.46093750
      1.50000238e+00 ,       25806.24023438
      1.50500107e+00 ,       25809.89648438
      1.51000798e+00 ,       25813.43945312
      1.51500666e+00 ,       25816.85546875
      1.52000535e+00 ,       25820.15234375
      1.52500415e+00 ,       25823.33007812
      1.53000283e+00 ,       25826.38867188
      1.53500152e+00 ,       25829.32812500
      1.54000020e+00 ,       25832.15039062
      1.54500711e+00 ,       25834.85742188
      1.55000579e+00 ,       25837.44335938
      1.55500460e+00 ,       25839.91015625
      1.56000328e+00 ,       25842.26171875
      1.56500196e+00 ,       25844.49609375
      1.57000065e+00 ,       25846.61132812
      1.57500768e+00 ,       25848.61523438
      1.58000636e+00 ,       25850.49804688
      1.58500504e+00 ,       25852.26562500
      1.59000373e+00 ,       25853.91796875
      1.59500241e+00 ,       25855.45312500
      1.60000122e+00 ,       25856.87304688
      1.60500813e+00 ,       25858.17773438
      1.61000693e+00 ,       25859.36718750
      1.61500561e+00 ,       25860.43945312
      1.62000430e+00 ,       25861.39648438
      1.62500298e+00 ,       25862.23828125
      1.63000178e+00 ,       25862.96484375
      1.63500047e+00 ,       25863.57617188
      1.64000750e+00 ,       25864.07226562
      1.64500618e+00 ,       25864.45117188
      1.65000486e+00 ,       25864.71679688
      1.65500367e+00 ,       25864.86523438
      1.66000235e+00 ,       25864.90039062
      1.66500115e+00 ,       25864.81835938
      1.67000806e+00 ,       25864.61914062
      1.67500687e+00 ,       25864.30664062
      1.68000555e+00 ,       25863.87695312
      1.68500435e+00 ,       25863.33007812
      1.69000304e+00 ,       25862.68164062
      1.69500184e+00 ,       25861.92968750
      1.70000052e+00 ,       25861.00781250
      1.70500755e+00 ,       25859.99414062
      1.71000624e+00 ,       25858.86523438
      1.71500504e+00 ,       25857.61718750
      1.72000372e+00 ,       25856.25195312
      1.72500253e+00 ,       25854.76757812
      1.73000121e+00 ,       25853.16406250
      1.73500824e+00 ,       25851.43945312
      1.74000704e+00 ,       25849.59960938
      1.74500573e+00 ,       25847.63671875
      1.75000453e+00 ,       25845.55664062
      1.75500321e+00 ,       25843.35351562
      1.76000202e+00 ,       25841.03125000
      1.76500082e+00 ,       25838.58593750
      1.77000773e+00 ,       25836.01562500
      1.77500653e+00 ,       25833.32617188
      1.78000534e+00 ,       25830.51367188
      1.78500402e+00 ,       25827.57617188
      1.79000282e+00 ,       25824.51757812
      1.79500163e+00 ,       25821.33203125
      1.80000031e+00 ,       25818.02148438
      1.80500734e+00 ,       25814.57812500
      1.81000614e+00 ,       25811.01562500
      1.81500483e+00 ,       25807.32421875
      1.82000363e+00 ,       25803.50585938
      1.82500243e+00 ,       25799.56054688
      1.83000112e+00 ,       25795.48437500
      1.83500814e+00 ,       25791.27148438
      1.84000695e+00 ,       25786.93359375
      1.84500575e+00 ,       25782.46679688
      1.85000455e+00 ,       25777.86718750
      1.85500324e+00 ,       25773.13476562
      1.86000204e+00 ,       25768.26953125
      1.86500084e+00 ,       25763.26953125
      1.87000787e+00 ,       25758.12500000
      1.87500668e+00 ,       25752.85546875
      1.88000536e+00 ,       25747.44921875
      1.88500416e+00 ,       25741.90429688
      1.89000297e+00 ,       25736.22265625
      1.89500177e+00 ,       25730.40429688
      1.90000045e+00 ,       25724.44531250
      1.90500748e+00 ,       25718.33593750
      1.91000628e+00 ,       25712.09570312
      1.91500509e+00 ,       25705.71484375
      1.92000389e+00 ,       25699.19335938
      1.92500269e+00 ,       25692.52734375
      1.93000138e+00 ,       25685.71875000
      1.93500018e+00 ,       25678.76562500
      1.94000721e+00 ,       25671.65625000
      1.94500601e+00 ,       25664.41210938
      1.95000482e+00 ,       25657.02343750
      1.95500362e+00 ,       25649.48828125
      1.96000242e+00 ,       25641.80664062
      1.96500123e+00 ,       25633.97656250
      1.97000825e+00 ,       25625.98437500
      1.97500706e+00 ,       25617.85546875
      1.98000574e+00 ,       25609.58007812
      1.98500454e+00 ,       25601.15234375
      1.99000335e+00 ,       25592.57617188
      1.99500215e+00 ,       25583.84765625
      2.00000095e+00 ,       25574.96875000
      2.00500798e+00 ,       25565.92382812
      2.01000690e+00 ,       25556.74218750
      2.01500559e+00 ,       25547.40625000
      2.02000427e+00 ,       25537.91992188
      2.02500319e+00 ,       25528.27929688
      2.03000188e+00 ,       25518.48437500
      2.03500080e+00 ,       25508.53906250
      2.04000783e+00 ,       25498.42187500
      2.04500651e+00 ,       25488.16601562
      2.05000544e+00 ,       25477.75781250
      2.05500412e+00 ,       25467.19531250
      2.06000304e+00 ,       25456.47851562
      2.06500173e+00 ,       25445.60742188
      2.07000065e+00 ,       25434.58203125
      2.07500768e+00 ,       25423.38476562
      2.08000660e+00 ,       25412.05078125
      2.08500528e+00 ,       25400.56250000
      2.09000421e+00 ,       25388.92187500
      2.09500289e+00 ,       25377.12500000
      2.10000181e+00 ,       25365.17773438
      2.10500050e+00 ,       25353.07421875
      2.11000752e+00 ,       25340.79882812
      2.11500645e+00 ,       25328.39062500
      2.12000513e+00 ,       25315.83007812
      2.12500405e+00 ,       25303.11914062
      2.13000274e+00 ,       25290.25585938
      2.13500166e+00 ,       25277.24218750
      2.14000058e+00 ,       25264.07617188
      2.14500761e+00 ,       25250.74023438
      2.15000629e+00 ,       25237.27539062
      2.15500522e+00 ,       25223.66406250
      2.16000414e+00 ,       25209.90429688
      2.16500282e+00 ,       25195.99609375
      2.17000175e+00 ,       25181.94335938
      2.17500043e+00 ,       25167.74218750
      2.18000770e+00 ,       25153.37500000
      2.18500638e+00 ,       25138.88671875
      2.19000530e+00 ,       25124.25390625
      2.19500399e+00 ,       25109.47851562
      2.20000291e+00 ,       25094.56250000
      2.20500183e+00 ,       25079.50585938
      2.21000051e+00 ,       25064.30859375
      2.21500778e+00 ,       25048.94726562
      2.22000647e+00 ,       25033.47265625
      2.22500539e+00 ,       25017.86132812
      2.23000693e+00 ,       25002.11523438
      2.23500729e+00 ,       24986.23046875
