        Displacement ,                Force
      0.00000000e+00 ,           0.00000000
      1.10890760e-05 ,           6.51259327
      1.55353322e-04 ,          91.05990601
      6.84540544e-04 ,         401.05636597
      1.87091471e-03 ,        1095.79016113
      3.90836922e-03 ,        2288.35961914
      6.86995825e-03 ,        4020.73071289
      1.06906788e-02 ,        6253.77685547
      1.51596777e-02 ,        8827.75878906
      2.00161394e-02 ,        9815.88378906
      2.50003822e-02 ,       10528.16015625
      3.00009735e-02 ,       11220.61230469
      3.50008458e-02 ,       11895.65527344
      4.00050133e-02 ,       12567.70312500
      4.50083539e-02 ,       13196.61718750
      5.00031263e-02 ,       13659.40820312
      5.50061613e-02 ,       13834.34277344
      6.00007959e-02 ,       13957.25195312
      6.50037602e-02 ,       14076.17382812
      7.00058639e-02 ,       14191.76269531
      7.50004053e-02 ,       14305.56445312
      8.00032690e-02 ,       14417.64648438
      8.50030333e-02 ,       14528.20703125
      9.00058448e-02 ,       14637.66699219
      9.50002521e-02 ,       14745.53710938
      1.00002997e-01 ,       14851.73339844
      1.05004758e-01 ,       14955.83593750
      1.10002093e-01 ,       15056.46093750
      1.15006909e-01 ,       15155.95410156
      1.20004177e-01 ,       15254.04394531
      1.25001401e-01 ,       15351.10742188
      1.30006120e-01 ,       15447.20898438
      1.35003269e-01 ,       15542.10058594
      1.40000403e-01 ,       15635.42675781
      1.45005018e-01 ,       15727.77832031
      1.50002107e-01 ,       15818.95507812
      1.55006692e-01 ,       15909.25878906
      1.60003752e-01 ,       15998.42578125
      1.65000796e-01 ,       16086.63476562
      1.70005336e-01 ,       16173.99902344
      1.75002351e-01 ,       16260.28027344
      1.80006877e-01 ,       16345.74804688
      1.85003862e-01 ,       16430.16406250
      1.90000847e-01 ,       16513.65820312
      1.95005327e-01 ,       16596.37109375
      2.00002283e-01 ,       16678.06250000
      2.05006734e-01 ,       16758.97851562
      2.10003674e-01 ,       16838.89257812
      2.15000585e-01 ,       16917.94140625
      2.20002487e-01 ,       16996.55468750
      2.25002199e-01 ,       17073.92968750
      2.30001897e-01 ,       17150.42773438
      2.35001594e-01 ,       17226.09765625
      2.40001276e-01 ,       17300.94531250
      2.45000944e-01 ,       17374.83593750
      2.50000596e-01 ,       17447.74804688
      2.55000263e-01 ,       17519.85546875
      2.60007322e-01 ,       17591.28125000
      2.65006959e-01 ,       17661.86132812
      2.70006567e-01 ,       17731.56054688
      2.75006175e-01 ,       17800.59765625
      2.80005753e-01 ,       17868.85742188
      2.85005361e-01 ,       17936.36718750
      2.90004909e-01 ,       18003.13671875
      2.95004487e-01 ,       18069.17578125
      3.00004035e-01 ,       18134.49218750
      3.05003583e-01 ,       18199.09375000
      3.10003102e-01 ,       18262.98437500
      3.15002620e-01 ,       18326.17578125
      3.20002139e-01 ,       18388.67187500
      3.25001627e-01 ,       18450.46679688
      3.30001116e-01 ,       18511.57617188
      3.35000604e-01 ,       18572.01367188
      3.40001702e-01 ,       18631.79101562
      3.45006555e-01 ,       18691.28906250
      3.50003183e-01 ,       18749.46484375
      3.55008006e-01 ,       18807.35156250
      3.60004634e-01 ,       18864.52148438
      3.65001231e-01 ,       18921.07031250
      3.70006055e-01 ,       18977.06250000
      3.75002652e-01 ,       19032.35937500
      3.80007446e-01 ,       19087.13867188
      3.85004044e-01 ,       19141.22656250
      3.90000612e-01 ,       19194.72265625
      3.95005405e-01 ,       19247.71484375
      4.00001973e-01 ,       19300.03906250
      4.05006766e-01 ,       19351.87109375
      4.10003334e-01 ,       19403.03710938
      4.15008098e-01 ,       19453.69140625
      4.20004636e-01 ,       19503.69140625
      4.25001174e-01 ,       19553.13867188
      4.30005938e-01 ,       19602.11914062
      4.35002446e-01 ,       19650.47851562
      4.40007180e-01 ,       19698.38085938
      4.45003718e-01 ,       19745.67578125
      4.50000226e-01 ,       19792.44531250
      4.55004632e-01 ,       19839.09375000
      4.60001916e-01 ,       19884.76562500
      4.65007573e-01 ,       19930.10546875
      4.70004857e-01 ,       19974.86328125
      4.75002110e-01 ,       20019.11328125
      4.80007768e-01 ,       20062.93750000
      4.85005021e-01 ,       20106.18750000
      4.90002275e-01 ,       20148.93554688
      4.95007902e-01 ,       20191.25000000
      5.00005126e-01 ,       20232.97851562
      5.05002379e-01 ,       20274.17382812
      5.10007977e-01 ,       20314.88281250
      5.15005231e-01 ,       20354.93945312
      5.20002425e-01 ,       20394.38867188
      5.25008023e-01 ,       20433.28515625
      5.30005217e-01 ,       20471.50585938
      5.35002410e-01 ,       20509.13867188
      5.40008008e-01 ,       20546.11523438
      5.45005202e-01 ,       20582.87304688
      5.50002396e-01 ,       20618.95898438
      5.55007935e-01 ,       20654.64257812
      5.60005128e-01 ,       20689.82617188
      5.65002263e-01 ,       20724.58203125
      5.70007801e-01 ,       20758.97460938
      5.75004995e-01 ,       20792.89648438
      5.80002129e-01 ,       20826.40625000
      5.85007668e-01 ,       20859.55664062
      5.90004802e-01 ,       20892.23632812
      5.95001936e-01 ,       20924.49023438
      6.00007415e-01 ,       20956.35546875
      6.05004549e-01 ,       20987.70703125
      6.10001624e-01 ,       21018.57421875
      6.15007102e-01 ,       21048.99023438
      6.20004237e-01 ,       21078.84179688
      6.25001311e-01 ,       21108.18554688
      6.30006790e-01 ,       21137.08203125
      6.35003865e-01 ,       21165.45703125
      6.40000939e-01 ,       21193.37890625
      6.45006359e-01 ,       21220.90820312
      6.50003433e-01 ,       21247.96289062
      6.55000508e-01 ,       21274.58398438
      6.60005867e-01 ,       21300.81835938
      6.65002942e-01 ,       21326.55859375
      6.70008302e-01 ,       21351.87304688
      6.75005317e-01 ,       21376.66601562
      6.80002332e-01 ,       21400.97265625
      6.85007751e-01 ,       21424.83593750
      6.90004706e-01 ,       21448.19140625
      6.95001721e-01 ,       21471.09765625
      7.00007081e-01 ,       21493.61523438
      7.05004036e-01 ,       21515.68164062
      7.10000992e-01 ,       21537.34570312
      7.15006351e-01 ,       21558.64257812
      7.20003307e-01 ,       21579.50000000
      7.25000262e-01 ,       21599.94726562
      7.30005562e-01 ,       21620.01367188
      7.35002458e-01 ,       21639.63281250
      7.40007758e-01 ,       21658.87109375
      7.45004714e-01 ,       21677.66601562
      7.50001609e-01 ,       21696.06835938
      7.55006909e-01 ,       21714.11914062
      7.60003805e-01 ,       21731.77539062
      7.65000701e-01 ,       21749.08398438
      7.70005941e-01 ,       21766.08398438
      7.75002837e-01 ,       21782.73828125
      7.80008078e-01 ,       21799.10156250
      7.85004973e-01 ,       21815.12109375
      7.90001810e-01 ,       21830.82226562
      7.95007050e-01 ,       21846.22460938
      8.00003946e-01 ,       21861.26367188
      8.05000782e-01 ,       21875.95898438
      8.10005963e-01 ,       21890.32226562
      8.15002799e-01 ,       21904.29492188
      8.20008039e-01 ,       21917.92382812
      8.25004816e-01 ,       21931.16210938
      8.30001652e-01 ,       21944.03710938
      8.35006833e-01 ,       21956.57226562
      8.40003669e-01 ,       21968.73632812
      8.45000505e-01 ,       21980.56250000
      8.50005627e-01 ,       21992.08398438
      8.55002463e-01 ,       22003.27734375
      8.60007644e-01 ,       22014.19335938
      8.65004420e-01 ,       22024.80273438
      8.70001197e-01 ,       22035.13085938
      8.75006378e-01 ,       22045.19921875
      8.80003154e-01 ,       22054.97656250
      8.85008276e-01 ,       22064.49804688
      8.90005052e-01 ,       22073.73437500
      8.95001829e-01 ,       22082.70898438
      9.00007010e-01 ,       22091.43164062
      9.05003786e-01 ,       22099.87500000
      9.10000503e-01 ,       22108.04687500
      9.15005684e-01 ,       22115.96093750
      9.20002401e-01 ,       22123.58398438
      9.25007522e-01 ,       22130.94335938
      9.30004299e-01 ,       22138.01757812
      9.35001075e-01 ,       22144.82617188
      9.40006137e-01 ,       22151.38671875
      9.45002913e-01 ,       22157.68945312
      9.50008035e-01 ,       22163.76562500
      9.55004752e-01 ,       22169.60156250
      9.60001469e-01 ,       22175.21875000
      9.65006590e-01 ,       22180.63476562
      9.70003307e-01 ,       22185.83593750
      9.75008368e-01 ,       22190.84570312
      9.80005085e-01 ,       22195.65234375
      9.85001802e-01 ,       22200.26757812
      9.90006864e-01 ,       22204.70507812
      9.95003581e-01 ,       22208.95117188
      1.00000834e+00 ,       22213.01953125
      1.00500405e+00 ,       22216.90234375
      1.01000714e+00 ,       22220.61132812
      1.01500106e+00 ,       22224.13671875
      1.02000237e+00 ,       22227.49023438
      1.02500284e+00 ,       22230.66406250
      1.03000236e+00 ,       22233.66210938
      1.03500092e+00 ,       22236.48242188
      1.04000688e+00 ,       22239.13476562
      1.04500365e+00 ,       22241.60546875
      1.05000770e+00 ,       22243.91015625
      1.05500245e+00 ,       22246.03906250
      1.06000459e+00 ,       22248.00390625
      1.06500578e+00 ,       22249.80273438
      1.07000589e+00 ,       22251.43554688
      1.07500505e+00 ,       22252.90429688
      1.08000314e+00 ,       22254.20898438
      1.08500028e+00 ,       22255.35156250
      1.09000456e+00 ,       22256.33203125
      1.09500790e+00 ,       22257.14453125
      1.10000181e+00 ,       22257.79492188
      1.10500300e+00 ,       22258.28320312
      1.11000311e+00 ,       22258.60351562
      1.11500216e+00 ,       22258.76171875
      1.12000835e+00 ,       22258.75390625
      1.12500513e+00 ,       22258.58007812
      1.13000083e+00 ,       22258.24414062
      1.13500369e+00 ,       22257.74414062
      1.14000535e+00 ,       22257.08007812
      1.14500594e+00 ,       22256.25585938
      1.15000534e+00 ,       22255.27343750
      1.15500355e+00 ,       22254.13476562
      1.16000068e+00 ,       22252.83984375
      1.16500485e+00 ,       22251.39257812
      1.17000782e+00 ,       22249.79296875
      1.17500126e+00 ,       22248.05078125
      1.18000185e+00 ,       22246.16015625
      1.18500125e+00 ,       22244.12500000
      1.19000769e+00 ,       22241.94726562
      1.19500446e+00 ,       22239.63085938
      1.20000017e+00 ,       22237.17773438
      1.20500278e+00 ,       22234.58203125
      1.21000421e+00 ,       22231.85156250
      1.21500444e+00 ,       22228.99023438
      1.22000337e+00 ,       22226.00000000
      1.22500098e+00 ,       22222.88085938
      1.23000562e+00 ,       22219.63085938
      1.23500061e+00 ,       22216.26562500
      1.24000275e+00 ,       22212.77343750
      1.24500346e+00 ,       22209.16015625
      1.25000298e+00 ,       22205.43164062
      1.25500107e+00 ,       22201.58789062
      1.26000619e+00 ,       22197.62500000
      1.26500177e+00 ,       22193.55468750
      1.27000427e+00 ,       22189.36914062
      1.27500546e+00 ,       22185.07421875
      1.28000534e+00 ,       22180.67187500
      1.28500378e+00 ,       22176.16406250
      1.29000103e+00 ,       22171.55078125
      1.29500508e+00 ,       22166.82812500
      1.30000782e+00 ,       22162.00195312
      1.30500102e+00 ,       22157.08593750
      1.31000102e+00 ,       22152.06054688
      1.31500804e+00 ,       22146.92968750
      1.32000530e+00 ,       22141.71289062
      1.32500136e+00 ,       22136.39843750
      1.33000422e+00 ,       22130.98242188
      1.33500564e+00 ,       22125.47265625
      1.34000576e+00 ,       22119.87304688
      1.34500444e+00 ,       22114.18164062
      1.35000181e+00 ,       22108.40039062
      1.35500598e+00 ,       22102.52148438
      1.36000061e+00 ,       22096.56445312
      1.36500192e+00 ,       22090.51171875
      1.37000203e+00 ,       22084.37109375
      1.37500060e+00 ,       22078.14648438
      1.38000607e+00 ,       22071.82617188
      1.38500190e+00 ,       22065.43164062
      1.39000452e+00 ,       22058.94140625
      1.39500570e+00 ,       22052.36718750
      1.40000558e+00 ,       22045.70898438
      1.40500402e+00 ,       22038.96679688
      1.41000104e+00 ,       22032.14453125
      1.41500497e+00 ,       22025.23046875
      1.42000747e+00 ,       22018.23632812
      1.42500043e+00 ,       22011.17187500
      1.43000019e+00 ,       22004.01953125
      1.43500686e+00 ,       21996.77539062
      1.44000387e+00 ,       21989.46484375
      1.44500768e+00 ,       21982.06445312
      1.45000207e+00 ,       21974.60156250
      1.45500314e+00 ,       21967.05078125
      1.46000302e+00 ,       21959.42578125
      1.46500146e+00 ,       21951.72656250
      1.47000670e+00 ,       21943.93945312
      1.47500241e+00 ,       21936.09375000
      1.48000491e+00 ,       21928.16601562
      1.48500609e+00 ,       21920.17187500
      1.49000585e+00 ,       21912.11328125
      1.49500430e+00 ,       21903.99023438
      1.50000143e+00 ,       21895.80468750
      1.50500524e+00 ,       21887.54492188
      1.51000774e+00 ,       21879.22460938
      1.51500058e+00 ,       21870.85742188
      1.52000034e+00 ,       21862.41992188
      1.52500677e+00 ,       21853.91015625
      1.53000367e+00 ,       21845.36132812
      1.53500736e+00 ,       21836.73632812
      1.54000151e+00 ,       21828.08203125
      1.54500234e+00 ,       21819.35351562
      1.55000186e+00 ,       21810.57226562
      1.55500805e+00 ,       21801.72460938
      1.56000471e+00 ,       21792.84179688
      1.56500816e+00 ,       21783.89062500
      1.57000196e+00 ,       21774.90234375
      1.57500255e+00 ,       21765.85156250
      1.58000171e+00 ,       21756.74804688
      1.58500755e+00 ,       21747.58007812
      1.59000385e+00 ,       21738.37695312
      1.59500694e+00 ,       21729.11132812
      1.60000038e+00 ,       21719.81054688
      1.60500062e+00 ,       21710.44921875
      1.61000752e+00 ,       21701.02539062
      1.61500490e+00 ,       21691.57421875
      1.62000084e+00 ,       21682.07812500
      1.62500346e+00 ,       21672.52343750
      1.63000464e+00 ,       21662.92968750
      1.63500440e+00 ,       21653.29296875
      1.64000273e+00 ,       21643.61718750
      1.64500773e+00 ,       21633.88867188
      1.65000319e+00 ,       21624.13476562
      1.65500534e+00 ,       21614.33398438
      1.66000605e+00 ,       21604.49218750
      1.66500533e+00 ,       21594.61328125
      1.67000318e+00 ,       21584.70117188
      1.67500758e+00 ,       21574.73828125
      1.68000257e+00 ,       21564.75585938
      1.68500412e+00 ,       21554.72656250
      1.69000423e+00 ,       21544.66210938
      1.69500279e+00 ,       21534.56640625
      1.70000815e+00 ,       21524.42382812
      1.70500386e+00 ,       21514.26562500
      1.71000624e+00 ,       21504.06054688
      1.71500707e+00 ,       21493.82617188
      1.72000647e+00 ,       21483.56250000
      1.72500443e+00 ,       21473.26953125
      1.73000097e+00 ,       21462.94726562
      1.73500395e+00 ,       21452.58007812
      1.74000561e+00 ,       21442.18554688
      1.74500561e+00 ,       21431.76367188
      1.75000429e+00 ,       21421.31640625
      1.75500143e+00 ,       21410.84375000
      1.76000512e+00 ,       21400.32812500
      1.76500738e+00 ,       21389.78906250
      1.77000809e+00 ,       21379.22265625
      1.77500725e+00 ,       21368.63281250
      1.78000498e+00 ,       21358.01953125
      1.78500128e+00 ,       21347.38085938
      1.79000401e+00 ,       21336.70312500
      1.79500532e+00 ,       21326.00000000
      1.80000508e+00 ,       21315.27539062
      1.80500329e+00 ,       21304.52734375
      1.81000805e+00 ,       21293.74023438
      1.81500328e+00 ,       21282.94726562
      1.82000494e+00 ,       21272.11523438
      1.82500517e+00 ,       21261.25976562
      1.83000386e+00 ,       21250.38476562
      1.83500099e+00 ,       21239.48828125
      1.84000456e+00 ,       21228.55273438
      1.84500670e+00 ,       21217.59765625
      1.85000730e+00 ,       21206.62304688
      1.85500622e+00 ,       21195.62890625
      1.86000371e+00 ,       21184.61328125
      1.86500764e+00 ,       21173.56250000
      1.87000203e+00 ,       21162.51171875
      1.87500286e+00 ,       21151.42187500
      1.88000214e+00 ,       21140.31640625
      1.88500798e+00 ,       21129.17187500
      1.89000416e+00 ,       21118.02539062
      1.89500678e+00 ,       21106.83593750
      1.90000784e+00 ,       21095.61718750
      1.90500736e+00 ,       21084.37109375
      1.91000533e+00 ,       21073.09960938
      1.91500187e+00 ,       21061.80468750
      1.92000473e+00 ,       21050.47265625
      1.92500603e+00 ,       21039.12304688
      1.93000591e+00 ,       21027.75585938
      1.93500412e+00 ,       21016.37109375
      1.94000089e+00 ,       21004.96484375
      1.94500411e+00 ,       20993.51953125
      1.95000577e+00 ,       20982.05468750
      1.95500588e+00 ,       20970.56640625
      1.96000457e+00 ,       20959.05273438
      1.96500170e+00 ,       20947.51171875
      1.97000527e+00 ,       20935.92382812
      1.97500730e+00 ,       20924.30664062
      1.98000789e+00 ,       20912.65234375
      1.98500705e+00 ,       20900.96093750
      1.99000466e+00 ,       20889.23437500
      1.99500084e+00 ,       20877.47265625
      2.00000358e+00 ,       20865.65429688
      2.00500488e+00 ,       20853.79882812
      2.01000476e+00 ,       20841.91015625
      2.01500320e+00 ,       20829.98632812
      2.02000022e+00 ,       20818.03125000
      2.02500391e+00 ,       20806.02343750
      2.03000617e+00 ,       20793.98437500
      2.03500724e+00 ,       20781.91992188
      2.04000688e+00 ,       20769.82812500
      2.04500508e+00 ,       20757.71093750
      2.05000210e+00 ,       20745.57031250
      2.05500579e+00 ,       20733.38867188
      2.06000018e+00 ,       20721.20507812
      2.06500125e+00 ,       20708.98046875
      2.07000089e+00 ,       20696.73828125
      2.07500744e+00 ,       20684.45703125
      2.08000469e+00 ,       20672.17773438
      2.08500075e+00 ,       20659.88281250
      2.09000349e+00 ,       20647.55078125
      2.09500504e+00 ,       20635.20312500
      2.10000539e+00 ,       20622.84179688
      2.10500431e+00 ,       20610.46484375
      2.11000228e+00 ,       20598.07226562
      2.11500692e+00 ,       20585.64843750
      2.12000251e+00 ,       20573.23242188
      2.12500477e+00 ,       20560.78125000
      2.13000584e+00 ,       20548.32031250
      2.13500571e+00 ,       20535.84765625
      2.14000440e+00 ,       20523.36328125
      2.14500213e+00 ,       20510.86718750
      2.15000653e+00 ,       20498.33984375
      2.15500188e+00 ,       20485.82421875
      2.16000390e+00 ,       20473.27734375
      2.16500473e+00 ,       20460.72265625
      2.17000461e+00 ,       20448.15820312
      2.17500329e+00 ,       20435.58593750
      2.18000102e+00 ,       20423.00585938
      2.18500543e+00 ,       20410.39648438
      2.19000077e+00 ,       20397.80078125
      2.19500303e+00 ,       20385.17773438
      2.20000410e+00 ,       20372.54687500
      2.20500374e+00 ,       20359.91015625
      2.21000123e+00 ,       20347.27148438
      2.21500421e+00 ,       20334.60742188
      2.22000480e+00 ,       20321.94335938
      2.22500324e+00 ,       20309.27539062
      2.23000693e+00 ,       20296.58593750
      2.23500061e+00 ,       20283.91601562
